6.85322024689 19.9221917658 5.22597369301 -36.2702073431
11.7786552127 -7.86634847582 -9.84663310564 -22.1376794175
-33.61781528 -51.2899548428 -5.47601076725 -0.633615038112
-42.6565970988 -30.1815204663 -36.4370401423 -26.0885607626
-1.05290713494 4.91316999015 3.66198143664 28.1479880897
-29.3446435556 -28.1192176157 -8.98132558766 -45.9372985399
-29.3373059621 -33.4372270056 4.73691937168 -74.1735561202
-29.8021956551 -21.596420309 9.08149152244 -26.8623128838
-12.89314906 -7.95187051947 10.2651600769 -10.1715543094
-4.75267206466 18.6845744589 -5.87476632611 60.8207857139
14.1838072426 14.4532812595 20.0390012334 -4.36985285717
14.8870394408 8.99714036367 40.9487041524 9.26364068865
11.595204986 5.97978998546 -5.21899421181 31.2901025078
11.9399610413 4.10650664262 19.9244551338 29.4682364536
2.94351272212 1.96539872005 -16.6030411454 -6.16893232801
15.3659939018 -0.315138289087 -8.04835513777 -34.5620025567
6.29263713096 -1.40048537564 -23.6570568495 -39.3367722772
13.5003967129 0.52587872299 -55.2845786273 -44.8404172679
6.06582460282 21.5976506741 -11.4874660519 -42.693525626
-19.0254077187 -16.0297677321 -40.1444216475 -29.82178854
9.76438551311 14.0434472971 7.39738036853 -28.1360384241
-6.1404327731 3.63117754074 29.7175131303 29.6108572333
-7.89314699332 2.70787027572 -1.69035573905 61.7890295931
-16.9498231982 -5.29645209989 3.45135489975 50.4421429195
-4.29583337769 1.96614373218 7.63209292426 31.1211912824
5.31450810744 6.12694791815 9.06966719893 33.9850715496
17.4937963383 -2.6661417529 28.9355333402 -15.9051909455
14.0014426751 4.02694046187 22.417349282 9.5011904176
26.1004497805 -4.64430557318 -8.11852386238 -27.9212749653
-0.778890611294 -4.72290034375 0.98052667266 16.3377313799
0.613690464437 -6.52435074289 -14.5571139068 -108.759304043
-21.3751664229 -22.3479382496 -29.9376880499 -72.7424182423
-14.0930222055 -11.1443411445 -18.7041280948 -2.60223473104
-7.61401432904 -0.601086497867 19.4885593881 45.177858173
-9.99883468521 -2.90717013613 -2.73324710187 34.6676627199
-12.9071405418 2.89143682967 14.3282271336 50.0302634373
0.355153110358 17.8234851672 -11.0890296951 9.12331573298
2.24956681635 -18.9763572955 3.20082206054 -0.736981903769
-22.5633657782 -16.5609200424 6.17190051586 -60.5273462414
-10.8122258342 1.79351627724 -8.4687685643 26.7368478514
-18.1988535637 8.18069517523 -7.89943516017 -67.8675777831
-4.14192386109 7.36082117847 27.1791993902 49.1018998108
-18.2047588015 -16.3191845887 -12.9760799173 15.6436276799
14.1392795534 3.58492617646 -2.91842103747 16.1004052494
7.95755482461 15.0686350336 9.25240073237 -14.2213741141
-11.0107646768 -6.32606848637 1.68283315501 50.7202696672
24.4263720938 13.1377758717 24.8248296867 47.3273686299
2.11182223109 10.5926931216 2.97872809113 -15.0437538198
10.1899299316 19.3959686209 2.6068757756 43.1227803579
22.5206082751 11.9118866234 -6.90732350159 -89.9559857527
17.3595325525 10.6753301444 -11.4109497528 -80.410225022
9.69397901835 11.3522077426 -7.63484848945 -64.8662179629
7.37283836008 -1.20501691346 17.6555614978 8.80100199652
7.7986637006 -4.46311963991 -16.1916757281 53.3987013933
3.15476981428 -8.62964669693 2.68900630802 24.8179647177
-1.73291733765 -14.669370969 7.51563406917 60.0892372702
-12.2857001262 -5.73358195026 -15.5254646737 -13.9963716604
29.5986403062 24.6217485137 27.5255794335 40.679907447
-17.8088154908 -22.6863091101 -11.0950479064 -3.02130005134
28.95862719 20.7963177466 2.00472748252 0.0132849841336
24.4628477644 26.0766259624 7.21411904339 -28.9382047032
5.56665874962 -3.55778946315 -33.1016310338 -18.252927491
-13.8120660668 2.71655218766 -31.6734829661 -75.0488413515
-40.9902831256 -25.4447314835 -3.0166823876 -43.928722286
-21.8278368121 -11.3562188989 -8.11887806733 38.706982467
-21.0271344332 -13.3053600499 29.9117692863 -2.05136656927
-14.0064627223 -19.3838322637 6.47643947633 86.6340587077
-17.3439761075 -16.532119882 18.0785931852 -5.74379037843
-9.57713122193 2.2880775139 6.44578106104 15.1910371271
3.77856312899 8.39306370085 12.7810366841 63.5352394009
-7.81038281326 10.0542651371 -1.35918283159 11.2602352386
11.4802726523 14.9249173293 17.9692954132 19.164721656
9.12050763924 19.93896132 24.5214879991 80.0718246248
65.9178065825 49.6849885675 -13.3514651028 48.8661883466
42.4932762888 26.216617051 6.11355445275 -14.6044140364
7.96682277945 -1.71244817656 -29.4271665474 -37.5357130018
-40.746300699 -25.8304354823 10.689808424 -55.5833522443
-10.8858394475 -9.41034600867 -11.7325260656 -68.2513621817
-33.3613319512 -24.9939831825 -11.7613924341 -52.0241892132
-38.3125228239 -16.8341925936 -4.78253673991 -13.9980220661
-10.1522482186 -28.6257273931 -7.61283316785 -50.0952078643
-12.9877529673 -19.1988237115 26.1664561269 -12.9155606157
-3.48681941564 -1.32655246344 11.3155782452 37.718604371
6.78230072689 -2.42239324274 0.314132823595 -15.8741695316
16.2672515407 1.4288073585 -9.86769115722 44.6051608948
33.3894236271 22.054150878 -14.5470520489 30.9441462578
23.9272004356 14.7746000841 7.41199840909 12.1838093822
35.0778462991 16.3629127903 -15.87447956 -8.75311561001
21.9396858905 7.15514031338 -5.75518995739 -36.3326964659
2.50333656109 -22.7647382848 -27.1074407286 -37.303245789
-1.99787881981 -17.147429661 4.03687752857 10.6037589657
0.302496792562 3.21168133652 -0.090541129248 -5.14113210623
-11.4780635291 -12.1659556233 13.7407438022 37.5598877951
-18.3308284253 -16.6720338345 4.25580647395 -9.08763479484
-13.7184865069 -3.28640700467 10.5443432324 -30.4533711781
4.73845738264 -12.2117476229 5.30607207392 26.7420490163
-2.1040344098 3.94159960804 -4.40140255996 -63.6423010268
-17.0487475007 16.5223789096 -1.95099621702 3.29498182216
-28.4697185654 -11.2611748423 -10.0833939664 16.4633543772
-31.4680500733 -9.83445014376 -0.00879963120736 27.6030604819
-10.3783160649 1.54098757717 -8.73994082413 -21.4233229017
15.6593589749 -3.75112072809 -0.566903672012 42.1314750101
21.4548198412 20.2687875231 15.315848431 -5.45625958923
7.50443425085 13.7349189012 3.58272578359 106.683812502
20.9323320002 15.8808035829 -16.0057878881 5.26789364727
15.3804561716 4.89509238173 7.68319570784 -33.4489687951
-1.08757672969 21.9955256571 -23.2450214361 -43.1695735816
-24.9149809874 -21.3686475081 1.99572974601 -29.0427970716
-20.3656968766 -7.65007451257 11.8185096761 83.8160329298
-26.1414183411 -18.4996340447 7.32951543168 -59.4160141877
-0.757172713884 7.71321423956 18.3135627985 28.525479041
18.8673731082 13.1471111212 7.49700385091 65.2530231309
8.46555954168 1.58388811801 -3.33148876653 -44.7945258341
-8.01578837978 8.95390881281 7.32012599883 -6.70806568015
-20.8232792682 -21.1321056125 -28.5160236436 -16.9194013152
21.2906229751 25.9963206736 16.9156132938 22.6757346864
24.541071974 15.5234988895 -3.7947823952 -27.3093067534
33.0581901544 20.7369401927 -2.08559905964 -56.9436973472
-12.256299299 -24.1183835804 -30.0284397149 -78.9705002907
-2.69456181986 -18.7364492535 -13.986216563 -44.212655524
-6.241662605 -17.3690943731 17.4239475336 63.27492248
4.39439494125 -11.1712298106 7.90407386116 3.52589480672
-9.7798861737 -6.949619836 -5.25068709887 -76.0001586278
-6.51912638915 -8.55405055529 -5.60622944329 -20.252200225
4.89739100943 -1.38195246852 8.67547292922 96.7990824029
11.2881607362 1.03995115093 5.4624007744 43.7632435259
1.84847078682 9.73700861928 10.507870108 45.1217837111
-7.33741764718 1.29682239949 21.2959679607 56.6061987701
12.6390533495 -3.43369305193 6.29945689176 18.5953147049
-7.76502144709 -4.67061476369 -9.78758025229 27.9103600002
55.3659359095 51.2607798053 15.8806148119 -29.2459297306
7.74171248462 -18.8852959265 -12.6757201832 4.06602122049
-11.6981064443 3.78483222621 -15.8162797171 7.97243146534
-12.6244915038 11.7098699423 -4.90491285067 -52.8759639326
-15.0070715139 11.737126028 4.95957223156 52.0665596278
-5.48237890956 2.3624902903 8.68100274072 40.2304528856
58.1688024797 50.1383245389 14.3191752224 -2.7541511138
-47.7438525665 -29.3535458448 -14.8127763454 -107.439564292
-39.6776695999 -19.6400192381 0.068458675879 -32.7806756311
-24.0793935328 -19.3882740737 10.8843755989 -18.4509219023
0.0124355746109 0.186640858946 -0.00405019267777 1.90711775555
22.6186670703 8.49949915141 11.2512709841 -16.5494832913
20.3200450699 14.7836783458 25.2761578324 -21.665711817
-0.731754827752 -1.75815467194 -22.5265469413 -36.1659483587
1.16056197554 -0.255118536558 -10.1051844884 56.1974747038
1.53943744185 -7.50972707784 -0.969513209839 -25.4227544958
19.9449726603 -15.2977807748 -6.26897411144 -17.2241438496
12.300190662 -0.631530118873 4.77071863509 -17.597860701
6.99409454636 -0.833320031815 -12.4285647915 43.0393181036
8.63968510676 23.2051468972 -0.383965252055 40.7182584829
-4.73803231016 6.04961037758 -4.75907361913 21.2273233343
3.50936285544 -0.16680393552 -9.38824252118 22.3642930854
-58.3622847276 -48.5030499354 -43.7834637748 -59.8510254078
10.0348422125 8.11992735399 5.36832289363 83.6980732137
-1.40037024498 -3.4002780447 20.8280696667 -15.0637265742
-10.9993486118 -9.96951543373 0.653920616431 45.2481412855
8.07049559296 -6.2967015404 -0.741923100273 -38.5037621557
0.73813134953 -3.16350428254 -8.16897256224 -21.5291663203
-9.96959704522 10.3764904466 7.68145850489 -64.7231374407
8.90762487725 1.21681031737 0.575340147101 -40.8480078847
-7.17792282639 16.2183553435 29.3915725878 8.98260968681
-7.01086417264 18.9027946369 10.5508927549 -17.2898320505
-15.4257349922 14.5475475869 -14.9235125436 75.7160428604
-12.7391269061 -1.05646033574 1.4735235503 55.8812566355
-5.33869562222 3.82437140437 -33.4191586342 -4.92662469382
2.71926104397 1.17306393192 4.5388932587 22.1534643278
-0.107943266572 0.642939752423 7.92831286273 35.9575097054
11.8604189927 8.01982324816 12.3047752797 -0.363083907016
-9.35253718207 -11.2822247435 -9.50240387081 29.4211110783
11.4038436322 3.58469046163 17.362454683 -41.0970956181
-5.22470489541 -6.37389328396 1.53920200532 -16.8681589981
-26.5986681859 -18.3306673069 -17.1082749887 0.858198173045
-1.68259769859 -2.88667122684 7.71678566014 -36.4960670413
6.97969968021 -0.729253764181 6.60635318917 -10.6213510148
4.70251645126 -1.24788710545 16.3336138467 10.7483385142
1.03936169112 -2.44236533154 12.1016978242 19.1999467554
20.1771727602 27.275357887 17.7219709553 28.116560769
4.96607120713 -22.4476854362 7.33914645683 22.5750758804
16.5472236488 -9.61665702179 -17.3574633961 -14.8242869907
9.15383559017 2.08292055534 -11.7803874811 -106.945957705
5.8485882059 2.95631558552 -12.3481331998 -81.1933962121
-4.20309628469 -5.12580414812 -16.1483740244 -0.371599998354
-3.98984829312 -8.76503809125 -8.51544163277 -6.37552098522
1.86602513128 -10.6104385649 -10.2180061183 10.5394130705
-3.22846023456 -8.07189873941 -17.931859617 -22.7267895043
19.0110326212 7.69334503978 6.6396618345 -9.60770189156
-7.05175293753 7.02741850945 12.244204593 31.9234234296
-2.76504276499 2.45451415699 2.51372805378 107.839889514
-12.2405345642 -7.25524463925 9.00560777008 46.6828924365
38.7403063865 37.3234418694 31.7374402951 58.8117478837
24.5306965078 26.9948351889 12.204773986 -4.81499523623
-50.5118006316 -46.4377237956 -11.6713231211 -35.4012152505
5.04232728226 -0.161345337829 -28.9106976477 43.5791528621
20.4774426051 -12.9594943336 -2.64445369692 -62.7965525648
-19.6954160609 -9.39780342358 -11.89576088 -54.3527203026
-16.6537166907 -7.40576563251 -1.61723019539 50.6274381247
-6.44109982101 -7.94493420692 -8.75610959403 -29.4350154657
-5.45828839832 -10.4003434282 -9.50986850834 -67.3712071939
-8.12678088635 -11.0315157255 9.76037414069 12.0899254985
-6.20617793438 8.00780306628 -0.996153359383 56.3297733691
12.897246107 15.8526626624 14.6615992967 29.2665649747
19.6046208361 22.472551633 18.9953174093 50.7025681806
15.9705366611 23.9352747437 20.982938044 9.24233829601
-0.589831869847 4.41202147244 10.6721720265 -40.9494327176
-5.47556953447 -6.13182754638 -2.20923878472 -36.2807998952
-12.0178898578 -16.134672331 -7.85570511923 -30.1387410699
16.7942725597 6.15201441114 -6.4938891677 -56.8314088839
-11.9580537303 -3.11920272764 10.5286457842 98.5631713896
-4.58629370014 -12.3104058313 -11.9787363743 -45.2631053462
-24.5733300226 -0.0218967589732 -16.8792487092 68.9415544529
6.26645767383 11.5210564873 -8.36860971166 -40.5283256187
1.63825501044 4.27626014769 6.86906665672 8.09935600004
4.45948444376 -7.35472042994 8.92892159566 -7.78987799988
-0.802182603946 -9.65899739992 10.1502097608 -59.2242101508
-5.41181016449 -4.78934051865 -32.3729841211 9.7216598256
16.3525577722 15.9868949382 -24.8417536866 -18.0480109159
12.4523715375 10.0311614244 -17.3264586525 -78.2983587591
26.4983931363 8.20219739516 15.1574092086 25.8795636448
22.0067746951 13.2380502674 9.24371704727 26.226833194
5.17748007164 18.453121529 -6.88179162808 50.8571579106
-0.505332262429 -6.55029625079 2.89578647453 2.63798722192
-21.8635564092 -11.0366781245 33.9795928198 32.6401190415
-9.21445104773 -9.2320614081 16.1723339951 22.9290150665
-24.3215821063 -22.0669844232 3.72775640461 -78.6461488136
-20.866401582 -14.4193503326 17.3637758043 49.8041551061
-36.1691406337 -12.7890653473 -22.2411385867 -8.55140987406
5.95839908534 -6.74483324628 1.463304687 -62.4263999508
10.6469288347 7.91997943604 -1.48250629531 -39.4122004463
-32.3076012546 -11.0250054882 -26.9268044874 -30.1887326516
40.7897725289 9.64331182394 3.4739715755 -18.6013576191
-16.1927467008 -8.11126129405 4.50092364484 6.43408818222
-16.5121505367 -12.4688819595 -2.79203347325 2.84332236655
3.09002836948 -0.685945327975 -4.1472191909 24.8890524742
4.97123553061 3.2610633006 15.1283332053 64.5553132045
7.74497079912 14.1434357869 -13.0977011505 40.5550604769
16.1399115063 3.86308409549 -1.12881979783 -27.4532369405
3.67740833114 1.18607890941 13.0108172202 91.5711226215
41.5973479289 37.7130008802 -12.4228940102 -30.0677046493
25.5379199983 16.3187175692 -1.09193292561 20.6763738822
-12.2014727976 -5.23494710574 18.3018025189 -19.9343641325
1.45113371536 2.84753558176 5.76929538442 -52.8623206605
-11.5759893402 -1.73423318707 10.669479939 -4.40545136094
-26.6428092217 -11.4794331223 -5.76419630236 32.5453930267
-3.38860352537 7.46022309894 17.3808274493 20.3801320251
-8.08677818275 4.586412777 2.46335892552 51.2512757762
-20.9304940556 -30.559985218 -32.0015461384 -73.6647622225
-23.0500942809 13.7106685394 -22.3885538082 13.5382695995
24.5058471091 17.3105059148 0.430091648789 18.466639583
17.7047537449 13.0082514006 16.5111839906 76.3475915251
26.0569612859 11.2726451495 6.18157912421 -62.5502698173
17.4804224788 -3.393883831 24.154780085 44.3686401004
-27.631258953 -32.6208558096 -14.7867930646 -14.8146638311
-15.8499115049 -29.6926793769 -19.5701839007 -17.9485726612
-16.4634756153 -6.63157893617 -10.6876667109 -44.9120656717
-14.7368347328 -26.7122580217 -2.87801151117 -27.4855716814
-8.7984711547 -2.9597861138 -0.0374799148267 45.8625199798
4.54962189308 -9.68131419887 -1.56140899869 30.2607991711
11.2613377356 8.76367474158 -3.6330947677 -25.5572789249
0.299909205149 15.8283110305 10.5976285018 -17.5093308656
6.59284663839 7.31352445035 23.615201931 64.787459156
5.08163514642 13.5519355312 -1.62672326515 50.5936488904
11.8566266679 17.1984908041 -0.419296697511 41.7091829778
9.07584526688 2.22491552354 12.6511794292 -37.3014660136
64.8688503572 54.1297450343 35.5938305341 -1.87176967755
-26.4664501274 -18.2802145498 -18.6051501379 -50.3785136695
-21.4763793695 -5.15104991815 -19.6119650969 28.4205629884
-13.8209735437 -0.186455576593 -12.0543216127 -40.8561173061
1.70708561396 -1.72174141169 -16.9398441396 -72.0108006683
5.99421657569 4.36933822642 3.24338735097 -7.3944847563
16.916145124 -0.0362575393716 5.22291147356 10.7691318504
-2.44581476057 5.22627072657 10.0518361514 67.7273749751
6.56843227181 0.350028044387 9.48506501265 -36.0518735787
-5.08713278689 -1.45670066048 -6.18432883548 44.7072221223
2.67893422599 8.96997102672 14.989323242 -31.0377468986
18.1448622906 21.7959890128 -5.04118587306 -50.0471847274
13.7289787089 5.77397343246 -3.37048819507 0.880312576128
-0.656731284535 -11.0956104777 11.552709718 -25.0181242883
-1.72666750012 -1.91033873569 -6.76398091907 42.5350038635
-43.7832719311 -35.7398394981 -20.3564821013 -18.3903071465
1.11267315777 3.92367657771 2.70802313216 -22.8197214525
-0.517451839501 8.29781646185 -0.0441692076977 11.1688177834
-6.44148109688 -31.5964459072 -12.8069478922 -20.8649003552
3.84248964108 -11.0030183774 5.6085553061 -40.0949261922
11.1294862488 -2.37603275878 -5.19332786434 63.872462458
9.03900049335 0.0752829593685 -1.79393480933 44.4190026625
8.54919236437 -5.71959656754 -1.60430376144 -21.5457598169
-56.3742941537 -37.1250595916 -25.8655248367 -13.9590717722
-0.333119313942 3.05618249659 2.85647797032 -93.5764709306
0.382417201738 -8.68377193805 17.0130657667 -28.0503555799
-10.1701160367 -0.0973324665134 -24.3611990191 -48.3320536223
0.319543918293 -8.06399514505 -6.6431406188 39.3699373965
-0.090486547654 -9.65842976584 27.9490804965 14.0573701431
-10.4902288761 2.39657047075 -8.09327393016 46.2461251371
-3.20855071428 2.12361916028 14.9243047547 40.8708528997
-16.9527509748 -2.57766398279 -1.15977744491 13.585866105
-3.00488828792 14.2576856912 -5.68225279289 3.34711991466
1.88041809393 7.3041787206 -2.70033002602 -52.2198655317
-15.9243894088 -6.04116927519 0.0836463693913 2.7738454059
-1.15541728015 32.7926951724 0.110509578758 40.4634442257
-3.51538841797 19.8589684476 17.7609088883 -22.3517352034
12.3880929581 2.42721700244 5.20976984096 15.5246011563
4.25997188561 -2.77121663899 -12.1228265477 -13.3438219753
14.5049594649 14.751147988 15.8180785192 37.5199271023
19.9843975603 -2.73161769797 6.11034120856 -50.6364495761
0.955258294159 -3.27859127308 10.9844086168 74.3388854364
10.9586617989 -6.42610827903 1.99918800754 34.4999715075
13.491332633 13.0944030585 23.8224630671 33.4774807342
19.6378005914 19.7099434106 18.560311193 16.6033317598
-8.21256864697 -18.5515967099 -3.17461118958 -71.6853213545
14.6608882117 11.7111222246 16.9548579967 12.801615857
28.548243246 17.3181701185 8.5120461243 70.9572278252
-13.9413676663 -18.9985568578 -33.9661428001 -94.4150572746
-6.27778448936 -15.4329233513 -43.6570301398 5.11142400196
-10.8176488379 -4.32298302216 -4.87837462888 -25.5001510169
-4.58424497295 4.78459204336 -28.0081948571 12.6734142766
-4.13205459557 0.42290092126 -7.77239670058 -82.8774768693
-8.21732344404 31.4845445308 -13.067820361 33.350645078
-0.41809151486 -6.22317510816 15.0588296033 -30.3022341676
7.46408247348 8.77467775215 -17.22830019 -30.8443599565
-0.042095237184 4.75569504948 -14.141010889 41.0651181501
-12.8185553019 -2.57238009604 9.91994122224 76.2889530318
-7.54151064395 -6.75248536985 12.8772064318 7.49961741481
-1.43008421011 -12.8489512494 -27.7169227627 25.3631287852
49.7095043332 27.4324057285 15.069114788 32.3243707796
17.375024541 2.95898558477 2.90689917927 -82.1844644729
-38.4643678296 -40.7901279381 -13.4131571358 -70.7855011081
-23.0858841462 -26.1671571571 9.95807507314 -7.37253889842
-18.6332674462 -12.8076707702 9.76645176354 100.684115772
-12.1420254437 -10.6686657038 31.0261526875 46.9276764813
31.2447867436 23.5291561618 26.2066774348 51.5332493081
-36.5254460978 -33.3545827621 6.29736067922 26.2093931617
-33.5791998194 -24.6538753666 23.762849742 -43.023567062
-2.27409117318 1.09710564892 3.38025677716 -1.21121514183
25.0741253563 20.8259798499 26.1477724366 -0.656088241959
16.7924640686 34.593599329 5.33397575539 60.2874724472
12.1430209552 14.2858552789 9.64094528413 -39.6747092697
24.3654102379 17.881812679 -12.7709604962 4.39631185489
2.21482337545 1.86437594569 -5.72398368534 -56.3082481318
14.1578741505 11.8720006774 -13.1569432347 -71.7647676957
13.005364217 7.29898839826 -8.85580701781 7.32917338084
8.64137312646 -4.03948185161 -36.6594565493 -78.3000342725
30.2297412947 9.38415475323 -21.5068807646 -18.1163876407
-31.0636022653 -17.7437793206 -16.400581214 -42.1136149386
9.66631749813 13.533836578 4.13021091279 25.4027648202
2.60495400212 3.12733390161 1.14672650653 2.08768355597
-42.7528703692 -48.6818130572 -26.8595787561 -29.1909640423
1.37295075312 -17.7384011364 -6.78636813049 22.0941047311
-4.42208965661 -7.9795622226 16.6548466 10.4587081762
1.57837515709 2.65959336984 -8.56847226786 88.691770096
-43.3056689856 -21.855584846 -6.76597317616 -7.72051112637
26.2571638163 32.2934216992 5.66499830375 -22.0802452994
0.708234588696 7.11699060241 8.00481515168 57.6073911354
9.37413916118 10.2066906652 13.6278050169 -15.7867902879
15.6001974271 4.48375197464 9.30110598736 0.0722085589534
-14.0010764561 1.9392280451 -19.3232482091 2.60800367479
-15.659710571 -1.64477461703 -12.5775016493 19.1042380993
18.9793926594 27.6627920365 29.7976705624 -28.457031086
14.8804847815 5.2860919704 -2.16660381147 -21.0459500223
-0.049544885719 18.198437394 7.11638948397 23.5849546067
8.87587559604 4.90290841546 -5.44793045617 3.79071960123
-1.39916596757 -14.761411773 -8.21087023472 -39.0222978244
4.20995132464 -3.47152135414 26.4993831228 21.7727468544
-0.834076130018 -7.81839050129 -11.7702294667 8.62359320985
-27.7467257404 -25.6179315285 -1.90238345642 44.5881257891
-26.1948173391 -17.7325349842 11.9068072155 16.4111251237
-37.2614747435 -36.5279151127 6.5202495474 40.7361523395
-2.66747545011 0.456737595402 18.202611756 6.15751731354
2.51988841017 4.18222834113 16.6784002841 -0.418158423826
-2.50135001038 13.9118236129 7.68119026756 47.2717187865
1.26185560486 4.60449427483 25.5691957712 -27.9639250823
-9.71764541599 -14.7724846431 -3.60795507708 -68.6686874242
20.7299527357 13.4793643282 -19.7286744887 -80.1390559348
15.8636235101 1.72225929005 -21.8758482457 0.252537540096
8.78955520028 1.09619812978 -30.2575743178 37.8376531652
2.76760159384 -11.1361222891 -1.84590955766 -3.54142363046
9.26116046903 -16.9489262094 -6.68024764887 -8.76746778284
11.1160204016 -3.21129515189 -13.9789180621 -103.526929999
0.88780975451 19.0018369947 -2.28417255215 34.2290456357
11.5745975264 1.95845617464 3.00223497579 22.0663955485
6.62934241542 11.3752317051 7.87396923614 6.812187577
16.2650594203 12.6556721106 2.52180542853 -37.8022583098
-1.34631167731 0.918580905023 -16.2553733119 -36.7891847179
45.6090707958 45.6463054801 29.8409715713 92.3956644847
21.3073054511 31.0529498296 6.72363456921 32.2839270127
-45.4950294463 -31.8269356691 -28.2392045859 -39.5255141245
7.77646210887 -7.53036162052 -6.61487716096 -25.5043276544
-9.22436606873 17.3370166214 4.00235222794 14.9677777712
-45.1727824545 -24.3747464739 -4.99628802636 4.1115859441
35.2723968817 41.2681543658 20.8962871735 82.8603850841
-43.0289601437 -38.6306652321 -1.48879150025 -46.9862112236
-23.9973856093 -25.0341849283 -13.0080122591 43.4848357397
-15.6969148038 -11.2192363499 14.778300491 -29.9530644263
-7.13817043957 6.60455664107 -7.03077526275 68.3573975887
8.88377757124 11.3527326774 30.8777684287 63.9028856465
2.96963334474 5.03282132054 9.36719173897 0.590524935348
13.6126647887 15.6035608758 17.4020153744 25.6546162314
15.2374497818 13.4822572637 4.02177508535 -31.9379114045
5.46054988408 -0.23912222473 10.9679290959 8.17706606143
8.07763373754 4.09083480409 -9.97775625603 26.1163155445
10.4499647724 2.17086467403 -15.2001012075 -113.999962338
2.97412574144 14.9250923281 -5.81755927937 -42.0580242513
23.2711074639 -7.48870117968 -27.6305064325 -43.9795124504
-0.700950758967 2.67524389906 -9.82691022484 26.1362962111
-8.081386911 -6.68555656024 8.30118682503 -44.0501049804
-7.30071571181 -26.1037201176 -24.1456653602 -24.2937256967
-2.56475199401 -4.13257548426 -3.952226135 2.01358338379
-14.6996368471 -6.05601989419 -1.51195128578 36.8048380268
-8.43026445965 -5.60210012168 2.69553904737 8.42502723217
14.165088994 4.00410381263 20.7666820761 -54.9055857714
22.5004892841 5.79310421151 5.39676749194 17.1506499123
11.3568801347 4.96218301889 4.00532283661 26.361024721
0.798876386538 5.05627947286 -7.80002480855 44.25521575
-7.77134750868 0.371448172866 15.425805136 -13.8782289159
0.251580322983 -0.820584969321 20.0093835015 -57.7953130254
-9.59444169754 -16.3159887983 -1.47015963855 -65.8176822816
-17.6716197095 -5.88650314688 -13.5095012318 -51.0712368804
-16.0139170002 -11.390082589 -3.05034954066 4.08716883542
-10.1506612681 -3.9212882242 -9.33470420367 39.6011395371
-30.3287617137 -26.415658165 -1.08147051196 7.33000902358
-8.36318896949 -4.94077267105 6.26606907204 49.5636001569
14.4897736399 5.12709097145 -15.5200088169 16.5360981398
-30.4788022733 -20.3347296326 -13.6953481123 17.1696675333
4.47127135715 3.43867917826 8.46936499695 40.9826935382
7.47257079473 3.64041857359 -12.6280331391 85.1518844601
-10.645508655 -6.90432216483 -14.8812910647 -1.60609801856
11.5643292101 14.5920598346 10.005846199 -50.6691780958
0.763413754549 8.54149025878 -1.30441469453 34.5412116348
-4.37744073584 1.1306338171 -6.63020478322 5.8581878317
9.12173425289 8.1733249014 18.1451066565 12.986741742
26.1389673422 13.7341031242 12.0310037143 -63.5848575923
24.9214066785 4.12722432276 -4.9196843423 43.7146125294
5.10755286823 12.2300572752 26.8532460267 22.386029827
8.36306543077 13.2896283691 1.45441227759 -19.0006878655
-3.3499645864 -1.68076400063 -4.98689552572 14.8548809889
4.1939879117 -2.59277351979 -8.55306987355 -61.2331423122
2.18598660581 -7.16955536872 -0.827157892824 60.9051321887
13.1349726115 -2.06531074735 4.720439901 20.6154666514
-6.7176066593 -7.18746504555 3.2478396766 -40.8580942525
44.7649828576 51.1793947377 28.0940560045 18.9606195175
5.20366240965 10.6476540947 22.658549836 19.5912202844
-42.3469382873 -45.3677812985 -42.6890540989 -44.4695777884
11.554248242 13.1008923849 26.4540609986 -18.5902672694
11.6762015367 9.33615563846 0.567765983805 -21.9390300444
-9.15565623789 -25.9435919275 -0.667906454419 37.976163673
3.11796774874 -9.33190119228 -7.95785080982 -20.3807542368
8.73366337303 18.1254105446 1.24538608971 -14.8986028656
-12.9251955498 -5.82191130327 -37.4902722091 -48.2141663948
-24.4580275698 -6.05491772428 -21.6934271043 -41.1104110547
-11.6819981781 -16.2031698715 -14.7077949372 -34.5969393371
-48.9807537707 -33.3647984118 -13.7861308599 42.5011009481
-20.7640620503 -6.55551497782 -0.0429762986287 -13.4388794482
-0.100768189523 2.67867922882 16.5552964264 -30.2659815426
-11.3678526264 -1.2691981517 20.4771634192 84.6163311984
2.19470292007 -2.07418907171 -7.67025070892 -37.1348193353
-1.55284914545 -6.63396085601 29.2504552114 12.6516173025
13.8245592794 -2.65607378396 1.49720426831 44.9217871213
12.7147786021 42.997235266 26.7074378232 3.56631986224
16.8371847497 3.39500405269 -17.6711684432 -33.5714036016
3.22981919727 4.20404455085 22.1941899063 39.1292608679
1.90959684794 2.18959944966 6.39836225318 25.7542821975
-5.15654980031 -0.501269580244 -15.226503408 23.7578809915
19.335363593 11.667967276 -28.1221309415 30.4504967987
8.88728250854 -3.18418592279 -6.03904034595 24.6632559038
14.1769348709 -15.6371886944 -22.3558450956 -55.0762715556
-1.89188997588 -7.72337176851 3.99209568664 -10.8370474201
-4.9291539552 -7.83230744317 5.74118320111 -36.3018119135
-8.02188231589 7.18481211609 0.919322144868 -1.5144842523
17.034787166 11.9078504777 18.3549995369 -39.4464979491
16.1962884426 10.2678811898 4.57531103074 12.6450780555
-2.36925575627 8.85206959772 -21.0269100504 -2.38332362109
3.99892070254 14.8159689522 1.68776112738 -0.910403758235
1.54235323625 3.67652707672 7.65610997186 0.226667666784
12.5838679019 -2.54194263226 4.18468074622 -44.1102608572
3.46290518534 -12.3846456211 -1.15149163184 37.0200011617
1.70377926236 -0.386239328249 4.99363322141 -5.39439868812
-10.3820640655 0.930298193445 8.75472417177 55.6958283141
-5.78917285356 -7.39258246421 -6.41973672515 -53.0308805788
-10.2692457241 8.26930888963 5.91153440919 -1.91713691396
-28.6475914688 -17.9112083371 -1.65960266843 42.8294571117
-67.2969443279 -42.4880319771 -6.0832517643 46.1894962515
-12.0740760144 6.58827750937 10.4872332288 -0.121156715852
21.3280170212 2.75601998376 3.42379301708 75.5409387055
10.5110684613 7.69319379011 -33.6769689796 1.64233424143
-8.90808023456 3.06561785308 -4.28971699474 -1.15548683905
2.32931189879 -3.86315381348 -8.99565777356 -34.1566978842
-9.34148352447 -3.14061463284 -11.574271244 -33.3654477771
-13.8836588716 -12.5802120976 14.5705431855 8.46806962044
4.09153580899 -2.12134173488 6.21564799379 -1.19515090953
15.8944505272 8.74074561083 0.0265474191128 -42.96800244
18.7292433505 13.272456718 17.9465510068 -20.3733865431
5.04382037791 0.135622184474 -24.7299210671 -88.7229381149
8.60854476585 4.95263752297 -2.20039045842 -34.3834923172
-7.1546404002 5.87980371933 21.172403363 64.5313113535
-6.69482298749 -2.3162777744 6.96518775767 46.7326189897
5.39740242046 -1.85795173016 -3.02639542608 -0.232390123249
12.4989991619 9.39649429822 -2.03715884258 -66.6432203671
20.1307236121 10.5459410394 13.505356935 -32.7413585082
5.56828300124 -0.147815585827 10.7845038995 89.2586846416
12.9745038723 -1.74833889934 -3.04921195141 20.0588328075
-3.80942461504 13.2593101571 3.40459833673 22.4991068156
2.05477851057 -9.54900761967 -4.85680079183 5.81299363476
1.06945051949 -7.21318037816 33.2007410798 -46.1655025646
17.6016309047 9.52086654977 -5.41479285292 7.90763243044
0.354011280028 1.0551039714 -16.2209519269 -15.9039591535
41.914149481 59.6252205632 12.0386416467 57.1260179262
22.6271469113 27.0374184637 5.14669617264 8.28735662279
-47.3752893254 -38.6771156915 -41.5691431025 -87.4622786452
17.6191265535 13.9686586497 24.1734447878 48.8715397014
14.9831288576 16.5875231238 10.9896910815 16.7196061006
-48.8692161965 -51.0240293424 -28.7755560361 -107.720136291
31.6576883586 14.3988725334 -14.2171856319 44.2282755549
-20.1807016121 -26.4562933603 -10.4843911895 -6.76465667679
-14.971406333 -25.9194968209 -37.2625837846 2.58513431888
-38.5283270913 -33.3405554089 -3.01348334684 5.68444311271
-11.1550681479 -16.3174218031 -17.7100658124 13.9552671208
-30.0067445118 -25.2990883379 -10.3989763964 16.213943902
-21.1056331826 -10.5849007423 -2.64870752077 15.6227150705
-2.35642204473 15.1312118849 6.91214453351 -0.624784819331
-14.5341170823 -7.92264236814 21.1764557514 -23.3401794817
-1.07089243089 5.3620080889 27.458216706 40.0065491526
14.8845179222 16.6885835766 9.73047930306 54.8559602347
14.228756124 19.4579024399 11.7209301369 25.8048755345
9.49879958812 16.9247923856 17.3242631056 -29.5201072095
65.9761322973 42.8080299838 -3.55859683523 9.63180811257
8.85797020079 1.10452099133 23.3557025433 -64.2080908297
-15.0406274295 -10.84316775 20.5946061613 -11.5772206087
36.86894526 44.1795280051 -0.557715987417 30.3392790318
-27.5352449862 -20.8568764309 -10.1221887757 28.9433051374
-23.5416074201 -10.8684311542 11.1532631438 -8.60108631856
-8.39470805152 -3.68807216281 -8.88607189013 59.7755123249
1.75307844979 7.57172299628 20.2990495524 15.9614629431
10.0207145438 1.64993558734 -19.4471212046 -31.1448033329
-2.64087088026 -0.897689904894 -6.74998355334 -3.01497376897
8.56760172283 -0.290008794742 -14.6232648687 -96.9861211574
9.69217745839 -0.542154177767 -21.6872750488 8.39191213141
5.0794720793 2.95719581793 18.5320128645 20.1106829712
23.5182055975 6.78429702892 13.9375434125 17.0969989172
11.2441752726 -1.26030562895 -2.47618335881 -30.9428157967
8.15470869559 -3.00547274402 0.954883339268 -7.92548087599
-6.69627013813 -6.70689069486 6.28236177251 -45.4295038702
-9.31459571317 -6.73361978274 -18.8825482943 -14.3076595548
-54.0302673547 -44.5485312618 -22.792701556 -61.5539274541
-34.6367324895 -23.211471334 -18.6517699796 -9.93425595669
0.778770486609 9.78145342744 -3.40840675204 12.3253198822
3.54054781302 5.42694083753 8.76712268008 28.7658152335
-3.62358571407 -1.656653932 -2.87768349291 15.5841819859
-8.36172250672 1.88534480956 -6.29775344766 37.6994374751
-1.27274334013 4.33648690587 15.9638023503 43.8030154918
5.0181458548 3.43038034657 12.1454558074 46.0911966411
16.562999501 -3.16506034882 6.53425920673 -17.3663293623
12.3531802705 1.56358392302 -3.925886818 -1.7236982866
27.4988253751 7.13250479698 -3.62085154793 21.0963312111
-0.527357549123 -2.99989237029 2.96421842438 -79.573365189
-27.9716166836 -4.95684507369 12.9054938651 12.2297737617
-3.70893893449 19.5032791288 -15.2982053416 -49.603344796
-1.4241715926 -8.58879926008 6.28393574189 -20.9704711801
1.85635097892 4.45171148168 -0.798624315221 22.5330400865
9.93373827704 20.5163831979 1.46058861652 36.0616038552
8.08888036274 15.557798787 22.0578725497 50.9928208013
-20.4981785923 -20.5836439601 -8.50443853365 -35.2294595217
14.0469716966 10.288114002 -6.58724781012 -24.9154159432
3.24833101037 -4.52412086186 -4.46710756095 10.877457935
-21.872633135 -22.9906693 -7.36168249648 -53.2678764605
-1.7489598618 2.90869978137 -24.3704810303 0.67874008398
-2.9011930599 -7.3630799471 7.36779099404 43.7605912765
9.47199938224 7.12961475327 -12.4329632653 23.0315473383
3.3314817045 11.558625152 7.27081161219 -14.7330702224
6.88986529874 2.15769945405 5.54936333752 -30.7431042523
6.80081803102 -3.95932824387 -15.5778746007 36.6130325314
4.38354786023 7.58542616911 2.18900749337 2.44229634101
3.4957465113 -5.19727855544 5.04565631162 -67.8478530084
9.65818658133 -0.120983772843 36.5767925591 -48.3999609823
3.75843701041 10.2431531149 10.5967154031 82.1515436565
1.75363697032 1.82978485474 -1.64473766942 -23.7498907463
47.2551166394 33.277354129 27.6599284559 118.16575456
16.7083433341 18.4133899467 -17.3236915269 56.2331241391
-42.4157905568 -38.4357932522 -17.8174823811 -54.3794204633
7.91947866933 -24.7879827148 -7.0419371969 -9.20576188291
-2.76210309901 -11.2241043025 -12.4509859393 -35.5320138659
-33.6461569393 -25.5938118559 -1.04367749548 39.2594393409
31.8993979754 31.3254010176 4.55981457859 78.7116007102
-33.1849081437 -27.6504891768 -8.8269586645 -40.630131708
-28.0459098332 -12.8986231789 -4.34353379137 -100.704528087
-30.8032704404 -3.33912777857 22.8604330701 -12.7570696623
-12.2861378542 12.2357971622 3.00759835796 14.4737804572
6.44132746182 14.9994237205 -0.00135502658397 15.5295123364
10.7223578724 13.3163807637 8.65981502249 11.8295956693
2.47384220905 23.2350872769 -3.8284517778 -1.90324206773
19.6948936281 9.59554385015 5.57164741936 75.6857897019
19.1243199435 -1.36632125534 6.98926029886 72.1455324008
19.5665809876 -3.13332118698 1.18232055138 -10.1127121453
8.35005921872 7.07404742498 15.2728231525 39.6591435619
2.13826929584 1.31746766943 26.8503040426 -36.3790490533
23.8575075126 -14.0904345329 -18.8581525959 -76.2894899362
-0.56917343687 -0.291546303947 -7.32857785017 -14.154490849
-2.76620506731 -7.89365897428 -22.0161976079 -4.31566129005
-17.7056744507 -5.86930191627 -58.0120992143 -145.143285328
0.470684216984 -6.62795271552 27.2401477446 -14.1436532855
-4.35488560755 -1.43642467248 -10.925826629 40.8706206473
-1.85098582755 -0.900547123693 -31.54092187 13.6153220331
9.68328073779 4.47167067618 -1.96669667428 -4.34858437514
11.2296812287 -2.54882310027 -10.1915219385 -5.66949639341
11.7658401936 9.86381054746 8.0071851832 30.6288601521
-10.1226504529 7.46911335071 11.8085943362 24.0472005951
0.0433711199257 1.62748403704 3.30390633382 23.8412284705
-9.53349605195 3.53501925576 13.9061486679 -53.0245848718
-21.0971712655 -7.19169400808 -24.045300267 -68.6715094597
-25.3400909781 2.4137316049 15.3992380325 64.0896078582
-5.40943095851 4.69661859163 15.8294049297 10.6565087771
-4.67842841495 5.63311808921 -7.63503753962 -7.61516218088
-37.9118460663 -33.0837242098 6.83858864192 -46.2377065198
-4.92960047288 -0.520159729094 15.7923432347 -12.3469510249
-0.986054764506 7.93849029313 4.29157404188 71.7041520871
-32.5656945641 -24.7823371693 -11.0310513295 15.1330210239
8.69103821199 1.88876233763 -7.15563363411 4.13811713096
7.62694066977 5.57758129012 2.49426165855 7.45651161726
-21.7831925611 -7.29409451229 -16.3130779782 28.6056585785
25.9757136414 7.44898071686 0.708314036169 7.29143901695
7.46491718345 -6.75283564217 32.3012900672 -21.5735991488
12.4027973738 -1.25668838768 17.0262211338 -17.7845065613
15.8762481969 3.32141255454 -14.3111297926 -20.9963271869
48.0797496556 -0.543064940255 21.1331060919 -48.146580649
14.684937951 9.8344030321 5.2409327988 -6.94840813944
-6.63105127052 5.30555879611 14.282377552 70.8873965784
0.738561897844 3.29097423601 12.5042548065 -1.91225640988
8.35982886822 4.84001564089 -2.42388535516 74.0758715134
10.2221855672 9.86969773199 0.757146308255 45.7136216436
5.40925823938 8.67610731573 -7.43292814718 -81.997925101
-7.62235111065 1.5078659126 -4.49791580034 29.9918450595
2.8549378327 6.11237229339 -14.9982070244 -23.9315076228
31.1804045624 37.6814228822 1.41066771168 -20.0345397948
-0.191943707806 12.6105706398 10.3595996278 66.829394263
-35.8936058708 -35.1022193086 -35.8616133126 -63.4548723911
15.2826381366 23.5653262897 17.0885945326 -47.5969264357
8.17521685437 23.5889188988 2.61141114444 -0.594018872929
13.6934887727 -14.5388870306 -11.9373170706 -4.03731371668
-6.76086489034 -6.9597788031 -6.0141184083 -46.6835303648
-42.7890947605 -25.8641224525 -12.12601939 -63.8743315938
-32.1692396798 -13.5786084416 4.92900844845 -17.5224058978
-24.4125393416 2.77434992003 4.80305632313 76.5065322986
-7.24233140196 -9.10026371054 -14.7860746344 52.2233120521
-7.76178631513 -3.80547955215 26.199004671 -0.855380283449
-7.07422828918 0.0492783967693 -6.79614589738 20.4946381479
0.660800350335 -7.33118823959 2.99653811527 27.1436705818
-0.186344467521 11.3190517427 -11.6608601986 23.5959613526
20.8887800258 2.24457216427 3.31425075355 -27.9850881891
9.22779197668 -4.42313490346 -1.13931939647 1.35786689127
89.875441996 53.5828966642 16.7384449959 -31.5592435403
15.1091121111 5.20875575737 -9.71402359173 65.6951062783
-45.6276015302 -33.3858632671 -26.7729708513 -21.5335091904
26.0748724406 13.731873551 -1.52078634615 56.3982405484
-15.9817323555 -14.4155728701 0.259354191582 -35.8308339671
-48.5455645155 -26.1764726485 -12.5892917837 52.8741440725
-33.1704469612 -18.2310692215 11.1854097292 -11.5302120087
-18.2273014333 -2.28048272345 3.73708993718 -12.5847311819
-0.566941663167 -1.22068141076 16.2347499004 43.9850420092
13.448725776 3.19424260864 0.996277784965 -74.3943794198
11.5412515209 13.3081324325 -7.04961455368 -51.0608420207
16.848631643 8.87692981788 8.01745874251 -40.520616109
19.814773454 16.5230374529 12.1990005092 53.9197122985
8.62496432699 -0.403746439624 -12.2095029831 8.8973685452
20.5100542339 6.43139670668 -24.9747406424 -5.90079240737
2.96419762771 -6.29395120481 -4.46655220901 15.6266377628
7.0565336706 -9.44704689942 -11.4868486337 -35.3300274906
-33.1280691526 -52.0064615355 -11.7423676782 -64.8822636837
-41.2010733534 -39.6603648361 -3.08764123534 -23.2037229844
10.3915679386 27.9031076149 18.4299923145 10.9747491729
13.3866978249 -6.02604540364 12.6590516611 8.65590111611
-29.6127980431 -27.8803880705 -1.53870062728 1.33694861466
21.9148250922 18.1331603559 9.84368693761 -5.01736513468
11.6128137287 3.56980091739 -2.12474114797 30.8200600564
-3.75034962334 2.7636860495 6.88092996599 29.625543194
7.09313615664 8.0722419595 8.03450364783 -29.0900992375
13.3979798022 -3.77077332514 13.8593228302 50.952048921
17.7883511388 21.6312875354 17.5173437465 32.8668297832
12.7358629763 23.1743729599 -0.901632670226 -8.88135707431
6.15836223293 17.521759318 15.676294423 -8.25694695238
12.1953508255 6.22973569625 -13.8961550759 -26.2647284974
-5.04006079791 -1.83571354541 -13.9649352601 7.99472350384
-5.29279601005 -8.83776887698 7.12755766932 -15.1372274574
-15.3647382489 -1.22178289775 -34.2921304614 -20.7954284837
-3.5439236682 1.26599227336 -30.2314332149 -16.9174820473
-10.2225853893 -0.567830622905 -15.974652653 -19.4388042636
-19.3612977369 -27.3024762792 6.4530761948 69.8616688863
-23.0719083452 -4.67837778522 22.1991274766 66.9013188694
-30.8988091029 -35.8664556414 -7.66995222586 -8.1709359668
10.6823237014 -0.862861348268 38.3487758308 -30.6822139317
-0.562199922947 -4.49083318652 15.2652055559 54.2162821173
-3.60377684215 -0.547034195424 20.6210513746 -20.8562626553
-5.53150015867 15.6130315495 1.15343273029 -0.0641111474488
1.87558127736 23.3079573233 6.53806890401 72.2582614373
19.7231365565 4.42560008222 -33.2458003599 -52.6153483895
-1.28996083991 2.5947127153 -13.8970869182 -116.960418462
-4.10308641144 8.38347957248 -10.5370807558 31.1213499993
3.35550237386 5.76082461098 -11.1782610512 -1.99632245737
13.8152867401 -13.0678301049 4.72082544003 -35.3849767802
-3.31506690205 5.03453910269 10.0297351973 18.801917021
8.59345062629 3.251807357 2.72731303482 -8.2770577219
0.698025678538 9.217405217 -0.915126427667 -65.313063609
5.22099834066 -3.34351152682 5.1661605056 27.0708339291
-6.20485178584 5.9560003443 5.31301852369 -14.3260393625
61.8701362669 53.3323970097 57.1558648163 91.7454929254
23.4454982736 32.981345178 19.1256878277 2.97450071021
-36.2989629488 -45.9121261731 -43.5159146227 -77.3516940801
-22.6771095754 -31.8227731522 -38.1894412689 10.825452277
35.9690979702 25.8854166515 22.2197655336 100.580923076
-0.00955505046144 -23.1357755366 -25.6707236178 -64.8786357042
-18.0755936566 -32.6235792008 -10.3686883049 54.3155913761
35.7995922867 7.14164104557 4.36232002427 29.4767924925
-41.7067137333 -15.5268345153 -31.9533303973 -86.4576957768
-25.1696346169 -19.3884539432 4.37867759646 0.468458853919
-23.3849646803 -16.4902562215 19.0856477933 54.5077676275
-22.1049207605 -2.29675201939 17.8986775345 45.8452030864
-9.65294435083 -2.47900396306 13.6649111312 4.07646872665
-7.63984483353 10.219758632 5.62371210932 -17.7532643041
-1.59539190678 -0.206603177608 17.4348749707 12.7601623586
10.1683875411 6.17008262628 16.621210265 22.2487962684
8.82357884168 16.1594336488 4.79651548767 8.06337576658
21.7171741618 33.8826202728 -7.02912337053 -15.492425281
22.3516404396 13.8872278437 -15.4132685832 -68.0740899504
13.0154602819 11.0412027925 8.393255176 -12.5883994543
25.7789069555 -9.86761523627 -21.709577246 -24.7728654107
-0.69645449376 16.2138100193 -16.4639707421 -44.5068364871
-10.3016810939 -0.0655436320538 11.8979743846 38.8378411901
-33.6894956615 -29.1581689755 -51.103585905 6.9988577772
2.56092809795 0.244390556769 11.4778359916 -61.5910251625
3.10844011881 -13.330246058 -11.5152150829 17.2319974178
-2.42291886446 9.11004783465 9.84159898845 27.0036695559
20.6336556414 -2.12826606724 -14.6175843336 14.1141852533
21.5287151702 -5.92862612318 -7.84591455059 -58.1803758759
14.8153182207 -1.85536121311 6.25383830548 52.8256162372
9.41559639499 7.52022041067 18.5759242564 49.3171571029
8.18160070145 -2.99019016431 0.370457650419 -53.4952266457
-6.05199676737 -3.76746641839 9.18305752061 12.0481052134
-21.5540066379 -1.8665666397 -5.36995198549 -40.1524829811
-17.5891763634 -12.1717026037 19.2512778001 -9.3897023458
-8.87751859257 38.8162846119 -6.48814881648 16.6696008057
-23.6199851734 -8.18673572947 -6.09054545131 12.61860387
-46.0367765786 -19.1541680745 -23.2054065243 -62.9040456424
-6.59296028549 -5.81056143182 11.5935818523 43.4898568036
-5.55332045256 3.42318014287 14.6494793138 62.4335970592
-30.2159527628 -21.0365210315 -21.6951010936 27.819288655
11.4897575713 5.03830762112 15.2762091809 49.6137476627
19.9892355238 -4.93368779079 2.36571882655 -27.3831078457
1.98052585077 -5.74818147391 2.9346268467 -48.1265688885
-0.565209411773 1.74071684512 15.7325218109 -46.826223908
4.47521749579 32.2946611642 15.2175065024 64.7115331949
10.7007872093 -4.41086225304 -12.760014549 -46.6551058666
7.17403325675 11.6068604124 -3.29985988571 46.4703471108
15.0642559286 1.51943662183 2.14411220384 -58.0042806668
17.2857730513 10.2890449254 -4.3243343411 22.235309332
7.00697440592 -3.14398823315 -2.76270743619 46.2031570114
9.84165126195 -2.68971928158 -2.36995505723 2.49683931468
7.23738990659 -0.493920805269 15.0199292766 -8.77570729285
-0.985226772531 -2.71883486437 10.2300044152 -8.43243344042
-9.44615207502 -1.14667456871 -8.88884644031 -16.1185078768
-10.9424730598 -0.16282324589 -11.3319815962 -12.3686802541
11.9611715168 26.3263628287 9.21924772877 -20.8312609289
12.9841790963 25.8983788975 39.620558166 39.360027583
3.58248018261 8.07054550084 -11.1984363344 57.2911793125
19.2544383278 5.00273995365 -5.87792101358 0.272291620783
-5.35579620115 -38.0033948402 -14.8737183565 -91.477765984
26.4711557054 17.4752237028 8.15286409319 -8.9933042647
15.3827084317 -24.9768994606 -18.349044258 12.6166574202
10.134723546 -8.51549692376 -32.0829934074 -68.9087063245
-44.4937615651 -33.0146582482 -10.7624166728 4.08480468835
-18.4213814159 -22.6111684041 -23.129080174 5.76099417908
-15.5923550105 -7.98690886914 -12.5233941691 -64.5561110884
-3.61634248211 -5.0163070514 -6.70898630478 -22.5418033675
-31.5343500208 4.54672663291 8.90768398711 41.888716499
-8.35781574409 11.985655536 10.1636850463 83.9253188496
-10.1783560235 8.94971979137 33.7777080427 91.5651932617
5.53239441676 12.0211982126 23.6733599831 -31.3874760161
4.53652965082 8.45350438305 -6.88528424209 23.3590405427
-1.81969084645 12.7919442181 26.8661095943 -2.19549948027
63.9650092121 47.4669686016 38.3368269683 81.2202627151
19.7522971117 -0.620822783275 0.844205849261 -31.8724633487
13.6748363157 -5.29048103229 0.249561360767 3.56756381701
-25.53917069 -10.7638881136 4.56679120919 12.4022008931
-42.6268453597 -8.0578917336 -17.4645413799 -38.7001183126
6.21454851481 4.20859275117 -21.7303104398 -36.4625461821
-25.8924332325 -35.583414472 11.6693543499 -11.5821729768
-24.3322965506 -17.9666428848 -11.9137597955 1.01943358264
-15.1501093211 -18.4536384351 -1.94793996003 -36.7618296754
-15.0077712761 -8.72657695892 -9.41047594374 12.6545525245
6.13971346244 9.36411353982 2.5965547738 94.0391676718
25.0085692142 8.84017977274 18.1426357988 38.6565148392
35.25465486 17.2320373894 23.9447081098 -4.85532506638
34.8980186599 19.7484696763 -24.0967005244 -30.9871463925
29.3703342036 11.8411579703 -6.93760594177 -17.8751565872
6.5166657451 6.52961523199 -8.88992233271 0.127520246659
6.97556056486 14.1005834829 -26.627392354 -98.5729723912
12.8842143526 1.42239025305 -2.73561613228 -18.1939322671
-17.1730655722 -10.7994561556 -15.1541438934 -89.0786953863
-8.95532496508 -4.43397673423 -15.6432935738 49.6889806782
6.33338282918 13.5955298578 24.4640846561 60.258150943
11.3863966305 -5.42516676506 9.01496194276 3.3348764848
-54.0417681664 -26.1297990015 -34.6863091345 -90.9130514821
-8.32636777633 -3.05021739087 -6.1703895023 32.9832414295
-13.4902325996 -4.14342864027 16.694628161 41.931480686
-25.5571322659 -6.3792530951 -18.9660565184 -68.0083439732
-12.2242118707 -6.88953879451 -2.02568539088 17.5540875722
-6.84817356595 -12.4513515641 -2.34995833824 -3.56949163839
-21.1890258706 3.90356060657 0.673230253125 51.6914426282
6.1815609845 -5.24795502832 -0.582127099574 7.58640677394
8.04909896709 -16.1610473687 31.2881025815 50.1364099408
9.9123549183 33.6126746108 18.526966225 30.4250181831
11.9029209849 2.7803132348 -1.50280137936 6.39749979164
-0.829406684568 -6.64783471213 23.936661045 15.4695023603
-4.34584329366 18.932411532 -8.76136900803 -18.8959780573
-1.1783878833 12.5608919651 24.4676712033 2.84986031252
14.3936341132 -21.0485006624 4.98128315246 -35.429654154
20.5683335771 16.6829093142 -6.27312190761 10.1646318231
11.3515039959 -12.4946917704 -11.3539240733 -51.4071483706
-18.6270776183 -24.7911891905 -20.6913475121 37.2968474392
1.76371615034 -0.759599162269 34.5102929278 -9.78374704669
11.3021174789 2.59896525287 -3.68248224828 55.3943061306
-0.430146738471 7.37042168178 -10.5617476758 8.9991824604
4.164199766 0.781873469537 2.22621452865 -75.3203320284
-1.27866201674 10.6654355063 20.5874367274 -41.4734523164
6.29805995295 10.683789688 8.22050240404 -44.9771605105
24.8485896815 6.1274409221 -1.73407679758 76.7379976524
-7.00812686855 -2.07756763479 -26.2943786973 47.0069034646
10.8335738773 7.74701189949 -30.4682993598 7.55340397634
-14.90264768 -28.6508499185 -20.9753208935 -98.8065165122
-19.408697975 -14.9574222344 -6.38083186252 -67.3341349153
-18.0523834664 -3.99656036952 -18.3356927141 72.5787390522
0.174687546094 0.888807259401 18.4133234731 -20.4503872935
3.97703112761 0.0672431050626 8.24530684842 -48.7578915735
0.933894597294 2.02216432301 8.36260684921 26.5950740717
-7.1262222068 5.16690344009 4.47476365941 63.8010856665
16.2160802633 7.29868545165 28.5262338465 56.0873853331
-5.17908314772 10.0109306869 0.169471039015 -10.4284720282
3.57802444417 6.58126451258 8.87326432386 70.3424797124
62.0330730254 53.3320803109 20.9438173433 117.759863146
36.5503930574 27.7312524124 -5.5899723793 -0.663493157002
5.82457218804 -1.41338526577 -13.8030317576 -56.8754876944
-47.7694695027 -42.9665515112 -44.6474485084 -123.763284781
-24.6644563964 -19.8069057753 -9.9125343525 -45.1667783139
36.3805022848 37.4988746838 33.233559225 55.653581757
-38.4311478007 -25.7615713483 -6.93843321784 -11.4594259066
-46.5346226813 -37.0867588089 -24.1505784902 -3.07349173349
-24.8846404351 -34.2242263461 -13.4331202756 -82.2041824522
-18.909384137 -19.8028599026 10.7214728221 -4.1860036745
-1.51268069718 -2.39086027532 2.62212191309 -4.92341544187
6.06623211086 -4.21724791839 20.8295259807 92.73858638
5.81023158719 14.4520828177 19.6028038392 12.2478097549
17.092708146 16.3861214727 18.7065399364 6.48384612254
16.8929694713 18.3244573308 28.2494468404 1.38374537443
30.0375966862 18.490819471 -4.4490040547 -52.2836252249
15.8339804105 2.30836541549 -19.556697299 -43.7879589821
17.7152744845 12.9244946771 4.86976100399 23.6442973896
-4.6260880253 3.64892740314 -7.739728624 -16.7711920983
18.0881949812 16.6442748502 -6.81917083987 -13.6660231482
-0.246678487516 10.9793930905 -9.37208885437 36.9332478751
-41.4548104118 -39.3054429922 -28.296060436 -63.4500490762
18.1503611582 8.60003696167 9.55191607494 70.9194324516
19.5800899123 0.71933304438 -1.77241236889 12.6471366471
-8.18832289237 1.9818820037 -2.15044447846 -3.56984847616
-21.7347602552 -14.8833936938 -3.11908556725 37.7827370352
5.81198584731 -3.73529947288 -1.35488003975 -0.859825015704
-22.3102800265 -1.88435822947 4.28646216051 23.46900377
14.0822346101 -5.10350426926 -17.8652101001 -15.769529688
-12.6890687795 -13.7774014245 11.6285498015 -43.9590382448
-0.37806583392 -0.328041067854 -12.915495445 -4.1204183323
-12.3815959306 -8.29641991031 2.92999340608 -20.6656902488
-24.4573312795 -8.73689712016 -31.0140162796 -17.8822239078
-27.3390495448 11.2978938679 -5.33105467107 -32.9379175811
-8.25631097991 6.38430022526 14.783339271 -34.6175546902
3.2858059291 -7.34010165095 4.4733659676 37.4120850639
1.7431918847 22.7215153767 26.2758158204 10.067351552
9.40126774715 11.6517603366 9.20421077071 81.2721894305
-19.8326030263 -19.859481406 2.25549427693 22.7011882999
11.7242115426 6.9124000447 0.40454841855 12.8526332584
2.66791424965 9.84917611925 29.9969285287 57.6502756771
-3.39729907617 1.75843640962 -9.04332660697 41.4345791253
2.5833252314 26.1596036325 -4.95749226676 36.2288091112
12.3313356256 1.99442594447 19.5500250063 -31.3943607981
15.3724408739 4.42408771523 -5.00608589715 -29.5708570774
-0.670145101283 -3.88687630525 -6.23867236762 -38.2349421387
10.7579202633 1.21473130282 13.2862691679 -22.2484787945
-4.51897923524 -15.4652581752 -10.30681503 -16.6935094388
8.28297015221 0.145466890882 -29.6515930876 -36.598866748
3.73374166553 -13.1084396861 -11.7675764592 -28.0001295725
1.44856305743 7.3314430219 9.80580690508 -21.5788003506
-6.15770291258 0.548168903031 13.1546945284 -42.8237481665
1.72580103581 8.41912686653 -30.0934364301 0.139513291813
34.2339557043 43.5641813247 30.3543329572 47.0467930847
37.3649243049 26.1181561744 -11.6372534943 6.43476101481
15.038406595 13.6147355657 13.186821658 23.44772073
-21.8779639875 -47.2951062169 -13.9442018915 -88.6861232925
17.4428591005 -7.55258765684 5.54628577429 59.4547162946
15.0652396824 -10.5206491702 -25.6370333212 -47.6093531743
-51.2054791267 -40.5527918531 -13.9012724301 -52.2084237243
-10.8764546084 -17.9394296229 -4.44506226535 -34.1782250202
-5.3946243226 -9.6931623249 8.69219396289 -21.2755118574
-14.5437632683 -2.02273913158 2.17979397377 35.2963323339
-18.4522123236 -1.1781625677 5.75533327151 86.6929680036
2.19407943661 5.20048868123 6.02141092254 44.9752406261
-7.87253573368 6.71974696737 5.04547439123 23.7180140336
0.667880965078 7.67467138141 10.4961470959 98.8626297
16.6494566069 -0.390944174395 8.77092259898 23.9010461836
-6.04846059084 1.10998500645 11.5899723484 17.7850544405
5.96962809458 -0.512292825092 12.500811941 -13.6640060347
4.05702515166 4.40683380202 6.71015757932 -26.8971835591
54.4686709383 30.8953406806 7.80485754289 -39.4580026728
1.98550354545 -4.37211102633 -11.5530996227 12.4736473251
-26.6426431195 -12.8991807477 -11.4927500665 -65.8583652819
-21.5474796179 -4.84646712512 -14.4119508058 -38.2405060312
-26.5080589351 -7.91385947363 -13.2799654906 8.48606922742
-6.87995571305 12.3276957245 -6.21018489127 -27.1178024367
0.578826954459 2.36557405158 1.86942432839 13.7480826118
13.3393157399 13.6697708717 11.8915488708 -34.5085938907
11.5236450917 -0.124379764294 11.7400504143 -32.6681646339
16.218492037 5.55093042073 5.883300344 -12.4084972352
8.58610823956 5.5291792759 22.1123324338 46.9923804507
19.4624186377 3.29739062984 -8.07909351672 69.166314747
17.8277206928 12.0438805934 -18.9071860084 45.9386754731
5.17158244656 -4.05262521855 -17.3300188621 52.4018044296
1.65326844356 -3.43130431535 4.86498336467 29.4818875559
-7.41224228163 -14.7258381591 0.661250981963 -27.1368965661
-15.4430077188 -11.817179481 22.4840750782 -78.9189271127
-14.700725607 -29.4882914888 2.63963425063 8.05180760933
-6.24778830267 -17.1515051314 11.3453678312 -18.5132525949
11.1102964145 -1.65791478406 6.0465610544 -44.2000876653
-64.1625548274 -32.5446791805 -8.77875572328 -34.0774939246
14.7274643721 0.0686888160157 -31.208424831 -34.7286959368
-22.903411086 -5.81202871544 -11.0576632823 62.5398234976
-10.8050301881 3.75545185078 -42.1747295873 2.40820958119
-0.436331195523 -12.483828401 -17.1065056493 -80.4777210889
-15.6803117834 -1.87497159373 4.41427248584 12.221287694
7.74644666878 10.9948738553 -3.59579246716 54.1921299166
7.79386276664 12.6705178396 1.44363585425 33.0352784078
13.849773266 8.91678200657 34.9680878489 -12.828314639
13.5966651287 3.48434512445 18.914955708 51.9801692701
9.34831152477 -1.40375367259 18.3410535528 41.7265944019
10.8607618866 -6.47634589371 19.0342033859 -63.7288737468
-23.8801634088 16.2083451563 -12.5932804824 -2.18530039622
0.411201229914 -1.8178593872 -5.55890576491 -17.9944080339
-8.97491665463 3.31627790573 8.45871701444 32.5508482425
3.87795008843 -0.245127464847 -9.77228270582 -43.0468502203
17.4671664869 10.57574701 2.05628174814 60.7663288346
7.76534488513 8.95966549029 15.0913091507 -6.61845857867
-23.1281366687 -19.4078238997 -10.5516794601 -47.6978925975
14.7227806546 0.306276894644 7.26000833029 9.84312289666
-2.31838064711 23.7739327706 4.64173347274 50.7437441167
-9.82325604086 18.5879121064 -3.51016743685 -39.0358314121
-4.39788671601 -5.02261794938 -2.06709600125 24.8442619738
7.36826944903 4.97951193321 -13.179003312 18.7741643706
-1.11438942187 -5.18834232227 10.3822510613 23.3838238392
11.921996605 -0.618100470334 -2.58458276926 -26.0154073554
10.489686926 0.66160366771 -21.3045328831 -85.4061336375
-8.02690318635 2.9962327281 -4.43063867038 53.2404700932
0.722355161549 3.8576772321 2.28664350034 -2.95746717797
3.20160445597 13.1440287349 -0.316390658789 10.5740528882
8.48885883637 10.9105034363 5.48061430174 63.1528218793
13.7135317402 20.050509281 12.4436170486 36.4346815509
6.18595917661 0.111540080474 -11.2685865208 -43.5218710915
49.2327854908 33.7827510264 40.1332772018 81.5006811934
32.6527288809 12.14083191 4.96870592391 -1.32435476412
-36.8771291225 -52.7747110766 -48.1110899633 -48.9040624071
-5.28259108044 -34.9505553917 -12.3288274504 -42.9145479175
-16.4703799529 -16.3911956536 -12.8116111477 0.737746407125
-33.5027567713 -18.0213342735 9.89761300048 2.81442508538
35.573667068 33.904637406 32.4536711885 -58.7970480217
-37.2162827473 -32.9640023235 -27.7987831195 -88.033470305
-12.4004353342 -27.2835166 -13.9657382078 -63.7952695199
-26.4818099008 -17.6444551484 5.9100585044 6.97484242892
-18.2521902831 -10.5335850236 8.72190320701 95.1725783334
-1.26779088217 13.8593122355 10.5543023438 17.8786023869
-0.655971893427 15.0145634789 26.4229449769 26.2260130266
20.3145871458 13.5526175465 6.90106671349 16.4990843503
-2.42910750379 4.07370104557 28.8752817936 3.65202591978
9.17428246519 3.27335826997 12.6607412344 -32.2858006194
3.1537290272 5.37572517797 -17.9776300444 -42.275617196
-4.10378182933 7.49638561518 -24.6908592828 10.9731676217
8.80899053058 16.7180312516 -0.195189371588 8.02896920267
25.148794788 -0.768281173988 -33.8608041279 -29.826162392
15.1049185202 12.1269083404 8.6987295361 42.1988108875
13.4153524526 3.52856191359 -2.67186062316 -15.2192754337
-8.89169235172 -3.07344281628 -11.7896719238 -32.4605419035
-8.54559614112 3.32143128661 -16.8342355899 -33.471787775
12.8939847705 9.76637630343 2.86506991688 62.3682572786
-1.52678994641 4.45725323121 3.94969141264 63.1760824045
-33.2185010896 -24.1483297758 -25.4495958971 -22.9107415456
5.85229492996 21.6054636739 19.9428505894 58.5033134244
1.79384610306 -1.02309354153 1.66499614666 34.4130903022
21.7882319964 -5.22792888141 11.9212371996 -66.9642041068
0.0329750093279 15.4280491758 -1.39730931382 31.6366525246
-22.4844004468 14.1622747743 13.1049933617 -15.6683894226
-3.14997451805 -4.6745167128 21.7034480517 8.73289609539
6.03151752348 -5.26658177187 35.0174976658 67.8174040522
-15.8030970299 -22.1372774713 -6.04089546954 -63.6684010245
-2.91881238989 0.776763268155 -26.8502616299 -7.44245517203
-18.1584827427 -9.2391438038 -17.6368388507 -33.452607804
-0.577374620909 -17.4460404831 -14.0329674741 12.6102948464
-10.8541844365 -12.198835287 -14.0089000034 -64.8492477289
6.28364124085 -0.223873887974 -7.92160973462 -20.463291655
1.41572925244 12.0098043954 0.768021168173 28.9503389842
-41.413296669 -30.6166575364 -11.5751326464 -46.2515965374
20.3455908535 15.3459780038 17.0163757661 15.9790628621
13.989019912 3.52882604221 24.7193425967 46.8065393274
-7.89695041492 0.466534730064 6.90034145541 83.906444837
-5.21641682314 3.37536005256 7.6330356653 -5.74992510296
-13.5455994322 -17.4919378079 -20.9613323358 -18.7139083227
-6.8745469851 -3.00939184135 -10.2567342154 -38.2555918745
9.01977673506 -5.98330567905 -17.4804256089 0.220823631312
11.9153095629 28.2847037929 1.22694883424 -79.207599423
7.95306703675 1.96453776888 24.9941727548 -27.6157100618
13.3540582436 13.0246762651 24.4577147286 69.6572218288
26.7865273082 2.09060905371 12.5670018948 7.93903601715
9.96297158934 2.17679239466 19.391441074 50.6809359263
17.4729832914 -2.1553432943 -1.72432608516 11.9880047596
1.46710660099 -12.983861142 -0.0215286589201 39.6332037132
5.48680500501 -4.73362710407 -19.426099862 -61.3299370758
-9.14050342739 -0.625925857656 -28.752796603 -16.268829879
33.486214392 68.0967187972 24.3197580074 80.1832354474
14.8482629981 23.1119364866 19.8390090521 57.7243059601
-29.4325749606 -36.7590629005 -46.9563552687 -67.3512200538
-29.0090022654 -31.1949900888 -27.423295317 -27.1135055314
43.1053225515 31.6808197533 39.417831088 -22.8575650368
19.7837117584 6.45262549199 15.7266317622 73.4625043204
-24.9834004279 -19.1451767073 -15.5394447911 -15.1785536512
18.4055538582 -4.08185526893 -11.9317109308 -33.339447402
-8.28928593133 -22.3115839945 -20.2392038764 -81.7109939473
-20.0720792548 -25.8526732585 -2.94645787421 -25.184093749
-31.9550117089 -19.8984762784 1.00333376091 -50.2204353694
-21.7591824053 -5.35346929283 12.9366357401 70.7863270576
-4.2550192017 -9.4920074411 0.693876600534 -39.1186675565
-13.4434394996 0.917637404906 4.00151561022 46.8786509243
-13.7998247552 7.16995683926 2.60457861259 21.2155323414
-2.77174271647 11.7860650341 22.782992764 16.3746212167
0.789090351124 16.0020941439 16.5187210527 72.366606544
14.2901318031 21.7664192653 -16.8723383405 -7.6050996654
3.47355342869 20.066865733 1.16332739556 -72.2980054596
-3.6362142589 8.83761724829 22.6325137662 1.26054651879
44.6330695225 33.6968426603 -9.61453693271 58.9059580298
0.941813995019 -14.0342569437 -19.7812434989 36.0021608649
-18.116216401 -17.9567925594 -14.4475480056 -56.3551886032
-14.3156507992 -10.4597707049 -2.75129322311 -20.6803593639
-13.1007584922 -17.5641076939 3.79035722594 -20.5449372676
12.6169977805 -11.8746379712 23.3591913679 -16.6998290031
2.24591744658 -1.19804644539 -17.0143351752 -51.3895445498
11.725772518 1.54923515408 -4.55047590551 23.6384305156
9.10292673953 5.68475448468 -20.7010506245 9.16650840647
5.53871557244 2.82111797912 2.79527044239 48.774363281
14.4193891304 3.34614117016 -5.31817318648 -56.586010192
9.85632682996 8.91270281293 13.2005313695 59.2844325467
22.791918338 2.41937859876 -7.37707073249 -3.86349028454
-0.758168375056 -7.92773605037 8.33792714716 -46.9823754072
13.3781967891 12.3196128855 17.4386286308 45.9098681843
-13.2304399129 -1.20204542073 -5.3839069852 -3.65847791054
-9.31464409123 -10.0104949078 11.852659903 -1.11226533752
-13.669187207 1.50509977359 13.4630205801 49.8230807433
-14.4983292584 -7.33377657001 -4.35426401012 2.1841637775
-18.199673824 -10.6297394255 -0.158619977008 -42.9064896033
-50.4099366833 -31.0369491798 -25.3807565296 -84.9015322686
8.22155967515 -0.0794293944245 -16.132463556 -50.2224044171
-1.42423752713 -0.632966475415 -25.6257554757 -35.0513964376
-10.9766258591 -6.56677342505 -9.75968251707 45.9718233654
-5.47743379848 -6.66284290806 12.0951165712 -43.3773159728
6.91756874513 -9.22539097365 30.0146814052 38.5029780373
3.51878271624 15.8484974014 13.3507564533 21.9026777692
8.84021006927 14.0560977344 -12.4995548339 -0.824207672571
14.266128632 22.3670842159 9.23318660368 16.8930563637
-3.99314924843 38.7578742863 0.595298073932 36.4373171354
7.05787975296 22.5471077879 -3.79555549462 39.1839768927
-10.1244881155 -19.069589169 19.7236690177 77.8263588804
3.22229529635 1.21206006222 4.49865952816 11.7888674425
-2.52934344062 -4.13255524762 5.13669231628 -31.2598525837
-5.42106847363 -11.324186413 -21.1287086901 4.9373481406
9.59567648182 -1.10535457937 36.3191771321 136.94903737
19.9666798402 6.8710232232 24.847801695 23.0726288395
-9.98616078923 -28.1658281988 -30.58039016 -13.418651882
23.0386514077 18.8438890713 8.83935972816 -53.4719857883
0.255104829536 5.63752518318 -4.19279885841 -85.0292306038
-24.434491332 -26.1159353096 -26.9976174372 -60.4740498136
12.4324750412 37.0687593907 -4.91296426135 -35.1985648258
5.58084320765 6.18808611586 -2.12890675092 44.4906861918
25.3844248647 10.9559832731 -21.0262434677 5.43387175434
-10.7093084602 -33.0580395504 -5.45761279641 -38.3167644634
-2.77529427662 -14.7395637882 8.32384443671 -86.1155966129
-16.8461480801 -13.426282935 -21.7885606258 -18.593585264
-6.15004502647 -4.02196574851 10.912650698 68.5170764917
-1.24314061526 1.13910941756 -20.0030146355 -61.7242827452
-6.59540733353 -0.361221378951 -1.09574844375 -44.9997398045
-11.2872814976 16.5402846114 -2.31243699834 64.5726182551
-2.43164652332 -11.9962329681 20.3765048609 63.7835180439
20.2615839635 -0.516394772569 16.930111166 72.7724186243
2.19769991727 5.97127096943 10.387053305 -14.0039707811
69.9061716887 47.3636412732 23.6861772957 85.8311875529
26.742863236 5.34306532685 -0.420450137499 1.97006201882
-35.5571407126 -31.7453204586 -10.8552366389 -34.2486105959
-20.0285852319 -34.4160898917 5.32113218777 -101.927977334
-6.39409453664 -14.7755147094 -4.53838264282 -40.7335321388
-3.69611615044 -11.241881285 -19.8264787766 -19.1026032915
-5.33271351488 -8.44700328918 -9.08549482177 20.4311965828
-18.8764513424 -0.320903373917 7.83037379252 99.6455243173
-9.7614875647 5.03951615569 6.39069716151 4.28666731299
-11.5012441312 8.65414096947 9.23714619497 20.2698242259
-2.35159398632 18.1371874811 7.65699399118 79.0571195464
13.7766486475 26.549548988 16.2086250678 9.20356099281
4.40553777199 26.6251271434 11.2981529983 -8.79957844569
11.8264059172 31.5711537476 11.7771264493 -2.96410464755
8.79110143148 22.4713882212 9.81890673423 -57.5603572058
5.8527177097 5.68017081097 -17.9528485661 -70.195274725
-5.15164219987 -13.4040548493 -49.1026390255 -35.1905549158
4.4183215589 3.52747604476 21.5389329746 58.6977138418
1.82529547863 -4.96187362432 -8.11923064636 -73.793789978
9.77070611061 -6.50558801883 -12.7588024523 -56.7055168431
-5.34534199772 -8.57309634426 -14.4891047374 59.7119132596
21.4323425037 -7.50248570209 -12.6977998925 -0.87447619097
3.38717756351 -6.22245093614 -1.47619566589 -5.70895211882
-2.22511786024 -9.02211237851 -13.6549544218 -21.5570967769
-12.1194938834 -19.5066033567 10.2763266153 -70.4538936415
-0.0531216330702 -11.9933999757 -6.5731662848 18.7507322397
0.516839602774 -5.6190664715 14.4638001031 56.7113444935
3.62120758312 -7.48483199598 21.4690886207 50.1440369696
-1.9967748177 -1.6144390712 -6.14616326334 47.7441215227
-10.1332800272 -0.146239006754 25.9722530116 -24.2653461006
-4.35462039025 9.21103117929 0.426210915925 -37.4708604595
-18.7939785912 -0.29415391331 5.1323093004 21.9903901692
-11.9951048559 -1.11482116549 2.35486830407 18.0684359903
-19.0885064128 12.497894201 -16.2698156385 40.9843563619
-15.2501772665 8.98952655173 -7.46533334652 23.4304936495
7.27424477819 -6.05689863224 -2.42057143853 -25.3376719051
-17.4826112031 -1.05471516924 -18.4664782072 -37.1747658079
4.21109144401 7.35540547738 -3.34581730595 -17.2797957345
8.73613037402 0.0715215283043 16.4457165766 30.6078278195
-30.886569461 -8.52935008062 -14.9978601471 22.8473266288
7.94487483573 4.56901671214 -3.13074449541 -47.4636138129
2.83169496376 -3.8039966421 35.5802691168 0.824224471552
4.07141081969 -12.3148584967 -24.7306833849 -19.6652588701
4.0062602233 -3.77631553251 17.1291417257 -36.1500190132
25.7960776778 1.08674807406 0.159950578912 47.4568400165
5.72535211248 0.917807905505 -0.572500130648 42.1081401157
11.366621723 2.63074941229 18.2414883156 -58.8607115753
5.44767379184 6.99592438565 -0.431974566735 49.9525640114
7.05333927728 13.2732422955 -6.25670510286 -63.1980577353
10.2231467243 7.47313882761 -6.87018643222 -53.2086639994
-3.45074025993 -3.62119106619 17.8383040165 57.554834752
12.7634175993 4.80207355557 3.83001182801 -10.1453989615
-9.32675788547 -4.01134420204 8.16343227408 -38.2124994227
-13.5934017662 -11.5027902299 -11.6574323353 -11.5258998425
24.3606008388 22.288998091 47.2005994988 96.0068447837
22.5130379335 16.910037217 15.410252571 19.8080559926
-33.8150841895 -43.8512320983 -48.4213961372 -3.08158760468
24.3486252033 6.25086568768 8.63442116693 38.3087545138
23.540741492 -1.39825205837 -6.55130620152 -16.2383515301
-38.0271427995 -36.0110518252 -32.6965339367 -98.0270787199
-13.6285024402 -12.1506326787 -22.3677991805 -85.5371075033
-10.3871526696 -14.1580231066 -29.7241816976 15.061587976
-21.8311402557 -15.7095033899 -16.5630425088 41.7230264723
3.19385974605 2.26625886577 -5.1687056832 -47.3153326397
-5.43545092568 1.68099288378 -2.62919889633 -26.2663661324
-11.4546281429 1.58149513332 30.5676274952 34.1387168537
1.39321847434 31.6942059711 13.5860967522 49.2257051748
3.46615002652 -0.992176496017 25.9764153493 40.9185936314
12.0918857715 -2.69786834826 23.1417522103 101.77115833
2.77667161106 -2.22085246788 -9.47436614187 0.513806089523
-0.0570098378876 -2.87115977396 -10.0971772545 -13.2057435504
53.3897327888 18.0410452211 11.0869342123 50.6700335641
7.07926769308 -13.8027124484 12.6817985231 20.6949674292
-13.9098231604 -7.62397099438 -15.3320728614 -69.4171976353
10.5109675463 21.4920793145 -3.35909130857 -1.947953056
-12.8293702605 -6.69147976196 -9.9556049628 -62.5528939811
-21.5660780905 -6.09565702897 -1.35812802022 -19.814759079
-23.6960387827 -6.19355858038 6.0983992149 2.53220113682
-22.5217493927 -0.4419966411 11.3557106912 60.8284931515
20.0219163594 6.33210967521 26.8272051301 -26.3412471838
5.11839252769 5.86334254844 12.8496663763 51.2814724141
23.5921306226 8.55396354972 1.0479360365 16.6082600089
27.8675739418 9.30724181977 -1.77587780212 -8.17194540641
22.6194782335 22.20242028 -29.5396242401 -21.4712225199
22.2650372477 18.8155515273 6.73546484711 -40.5476250839
10.806840144 7.95355062904 -9.44414693025 -36.3070373426
5.99610243674 -0.100268501132 -12.0889488785 -25.770596645
-30.1628903289 -23.9371123592 -9.68982200568 2.07036353082
-10.1220043152 -9.85250897606 -18.0037622146 40.7119490901
2.09339011958 -3.75077630393 9.26044482696 -38.48127542
-9.13423591097 -17.0463027767 6.79081313171 7.1401229794
-34.2748403594 -40.3259497258 -32.0770700041 12.9345242793
-3.84607110878 2.31427492412 -4.983728047 11.7271542866
-19.3275876647 2.11361411525 21.680239238 -24.156711489
-10.3676202011 -7.0395385278 -26.0864501289 -53.6046807263
-13.3797140062 -10.5627827889 -18.2964036895 25.4489152322
-16.272194023 2.8039891499 12.028492679 -16.3272036586
-15.821986947 12.2882932031 5.35248819269 -3.18376091623
-3.58428904167 9.8666134607 0.742357688412 92.9803520645
25.8115457864 12.2988767529 17.4892146215 39.9138603839
12.3253280175 25.7524664312 21.7165389547 -4.67696144102
11.0601574276 11.6480955616 0.0102856797797 34.8048224592
4.94386287617 2.31788617615 1.96544736253 -50.2510553556
-11.0953531623 19.5144230425 -2.00455947829 5.87831232182
-1.57566626183 10.452039739 -1.91229526238 84.5992369173
6.97305826931 -4.50814734842 9.52261480838 44.8789701188
29.1631733947 23.0798706706 5.19653221779 35.2051448013
2.42684543015 10.6218429905 11.715355435 -16.5687717365
-20.7801560428 -12.8073666284 2.01949020888 -10.5607061602
2.33569171048 12.167063562 9.86289897664 -44.5750497542
6.24565453453 -2.49776997961 10.2438402015 6.10997384013
-7.47479477661 -15.8077427964 21.3821112312 -13.5038168996
-2.05085274459 0.619412593062 -4.24961633418 -52.7686830635
-5.13839822028 -1.8978157441 -8.31635666016 -42.8393963272
-3.37012649567 -4.40090071322 -14.5436019935 -62.7613888718
14.4534134916 -3.32277369755 -7.65755998038 -42.5080259714
-24.9237209703 -47.4861588193 -4.83426421721 -33.6925838327
8.91915471163 -7.68413126696 -19.7597285265 -6.75470238839
7.94070929783 7.19511675508 -23.7134401424 -32.7772105566
1.44593756331 -8.93663345055 -6.49272054047 -37.2478949827
-8.19775953991 -12.8013847756 -27.7616130893 44.1782065823
-5.06872048498 -5.5356922441 -6.50053950635 57.8560055298
7.1537432539 1.13433760552 6.86726527493 56.31089204
16.4158890314 7.79878492457 16.3398619152 21.3112949507
10.2670487342 12.3854386745 17.3651056467 -9.4629268587
2.74219214749 20.1170384 17.690485895 89.9375043658
-1.70224196652 -1.04483880563 -3.56897101761 53.9028251099
-2.32169049066 12.7741580185 -6.50794806411 -13.9856163252
47.5874473255 26.1951791302 14.9391849133 -26.9312420848
-33.0577369213 -24.3944114251 -1.95455720231 -105.177904325
32.6973924989 42.4368017524 -10.3712113094 5.59110785547
25.6201673619 16.2776497556 14.767771205 -10.5273192826
-37.5139797877 -38.6872439664 2.33561774894 -48.3659147941
-15.8848526351 -19.680150191 -15.3959535361 13.3526163498
-20.2087753642 -13.775330001 2.61309913298 -7.6855571781
-1.75338173268 -12.1261475723 -1.70451023644 -32.1930281092
-15.1721391643 5.16546548298 13.8787060627 15.3474773697
-12.0155552966 -30.9238809492 5.27670344251 52.0851338832
-19.6014390898 -17.5859842143 26.6080243019 21.1691766245
10.6779037287 3.65224297017 0.740763497474 -14.6648844654
8.93548489179 18.744915344 -5.78404644653 83.3097857945
9.14271658152 13.2085261226 12.5077683462 18.7129048707
9.72295367917 14.3422913069 24.999223551 7.86208470501
11.8991179619 0.0939740322829 2.46570499959 -4.0643624781
-0.368960789371 -27.1539498357 -32.3259161476 -35.235462229
2.87910168619 2.69241373822 -19.4116946146 -55.5351639469
-3.51854906425 6.08236689845 -15.6203883758 -47.8994956806
-44.8798672555 -28.856676354 -43.5472076777 32.2174734948
28.7818491888 22.4709462251 -4.77727677027 16.0961217556
12.2942872446 11.8167904958 -21.810864539 -6.63329172305
5.36359793155 8.30293566852 -12.4899158392 42.3588931608
-34.0771340922 -39.8616780749 11.0926993562 -42.6114930003
19.8502213563 10.5521027893 22.0683927745 -10.4180236435
0.0334680890988 -2.85965323305 20.5010173458 -30.8210097269
8.01889844809 -2.01148074853 17.3526114298 -46.4546182997
7.66652726931 19.21906346 9.7402456318 61.1574488633
10.5911896194 8.5136529326 15.9104537243 -46.0925153688
-9.30032481231 -2.66456351397 5.36897665654 -40.3054160647
-14.8279048903 1.88513886543 -2.59575246573 27.4288206787
-2.66474913822 -9.3887106913 -9.84814634355 -30.2514589952
-8.40066758841 -18.6679064841 -14.2692026495 -26.8857450445
-20.461805887 -12.035313145 -12.7153447308 47.4344358844
18.3342030887 14.905170188 9.86667795778 99.8807508226
-17.8037094983 -13.1757487651 -4.904547299 61.4966633013
5.59455869326 -3.16966660004 1.21912638823 -44.113714597
-5.81394170489 -4.08238700867 1.42812565771 57.4634899463
8.18652337792 7.66528130398 4.37225388226 -41.3258416992
-8.91358246355 14.8911607106 -12.1022946325 42.0890072704
-7.00823441594 31.418713571 14.9917395706 -12.3078021511
-3.78078017742 7.72433122662 0.348857297776 -1.02293282134
-5.28633684582 4.59858470608 -6.24283627407 57.3741712982
3.27645555325 2.03111641512 -6.24606463631 30.3913597354
33.6685688543 0.128275014208 24.1348803646 -38.0668501405
10.4146143014 4.12557973477 16.1863327679 55.871033072
12.4215809707 2.42647010743 13.7659794347 54.144086305
30.1649163548 22.5079173993 10.5266861221 1.08996670033
10.4396564716 19.331853338 -2.03905302347 -36.085058476
-33.0037479387 -32.6604551818 -18.0626035467 -93.2098633661
-4.53699959441 14.4723748126 5.1774546262 9.29949899223
13.8317135345 25.2071674528 17.1777662017 -40.6774511876
11.7202179649 1.30845773961 -25.4897991388 -80.1189515077
-3.21019096186 -0.873076186347 -9.04537186413 43.6849686922
-10.6849763266 -42.0951114221 -18.4170282929 -14.3661171533
-25.562973776 -36.2611081358 1.59381460171 17.6930723285
-12.954424335 -17.5214401391 -10.7027675256 -41.651294429
-4.46135900625 -16.4383361939 -0.0354271884202 -16.1602406197
-11.7471917657 -19.8206500207 -17.7097224757 -59.2448019149
-9.36785846576 2.71034977333 -28.9015249828 -63.0663091482
-13.9052533947 -8.78468848747 2.9383645667 -43.1478799978
-8.89758359492 -8.52885990462 -0.390870566874 77.462275299
15.2112023865 8.31118816555 -0.680347649887 31.710408457
13.2874443769 15.6028645274 -17.0168994011 25.0495746274
75.4456862572 65.921809409 49.7598703356 62.895810655
48.0114713503 26.8925565185 10.6243585934 57.4084459155
-30.0374590995 -30.19017539 -7.68664261859 2.6296388549
41.8825964661 42.0259515208 19.5749627743 70.1070383445
-29.0224373882 -29.8332609284 -15.964613806 -103.60564884
-37.8424128305 -6.77928006491 7.36762740851 17.8067023458
-27.1467949555 -21.3752541707 6.5010489243 -35.5652623443
-9.1900618342 -4.05351003809 18.5194073344 18.49653433
-29.0942246958 -19.4493136235 8.98561285161 -8.23757762561
-22.8585190973 -7.62414880699 -8.87788960994 8.29267385726
-0.941476783221 -2.0444955585 11.5040304639 29.8964018445
6.96280341277 9.48688080574 -0.594681883077 8.09089300085
15.2267360297 17.2170048998 -6.37810458616 -44.4642345016
11.951149672 18.7870317532 -10.9962509157 -26.8274447094
11.1832750256 51.7554654886 10.533686363 9.7786797569
24.5408911882 14.540609214 -1.4122359737 -20.3301422314
8.43299626307 6.68178137872 -8.47153054109 -9.75707863853
-5.64417074818 -6.90971393572 3.73817256341 24.7342435077
-10.7435960643 -3.9020115992 -3.48834704264 -21.8574073013
15.8008419212 1.9926623821 -19.3083888076 -21.3013478334
-15.8545907225 -40.7593474708 -11.6186726298 -65.0871885762
21.0178874933 5.21318189207 -12.661684274 48.3947538307
18.5454490651 -4.43619760322 -7.70578949557 31.337987823
9.27682418581 -13.0829033652 14.0530518131 20.3417783643
-1.69469550059 -23.01290535 -8.45732777428 9.01189553878
-7.17682370751 -20.9634044432 7.02720534956 -14.906680246
6.04532438123 -10.3818491857 11.7826323703 49.1580164844
-2.79926317986 -10.3405928724 1.36372696571 -61.6643827705
-12.3844197449 -0.105883420823 17.6447702921 61.5137747147
-18.6297088813 2.20601606802 19.7208544042 45.2285919237
-10.1485844018 9.24241602103 -9.58872074771 -72.4909982203
-11.4513148481 0.534154551016 -24.491531576 5.76338151438
-18.8500774141 10.2915145482 -0.542731435137 60.8577291715
-11.6908348882 5.33112992739 -16.2739227468 -68.2453797316
-15.0764223062 13.2559326822 13.4437939061 66.5824069969
0.164332018037 -8.32319824133 -17.6602632853 -53.5312151883
7.40588758084 16.2793315268 1.09880311667 -29.4070746035
3.84011130659 10.3604970148 29.1144044455 16.0374256431
-11.5792678154 -4.41011548753 18.9974078714 -6.71173276526
-6.05733508639 -16.3926647445 -6.58169772581 31.7204389355
-2.3389963782 4.83791906461 -4.16006561619 5.95821718597
9.60638879603 1.74373214198 14.0440147732 22.5354033902
1.89322056291 -0.369212995008 19.918067775 16.8039531458
9.97309054477 -2.08148117236 5.74546190818 43.3134140268
7.49414537213 4.79828177783 7.76227648679 21.2878220141
-1.64780460694 -2.6788488039 3.38225136676 8.45133992698
21.6006146211 -2.31290425929 7.76864221468 -44.616157552
-13.9372589111 -3.05185515661 -19.3901143376 -9.87813459063
6.6247781372 3.99578495793 -29.1341166215 -30.191897348
9.27113286943 -6.98844424006 -15.1817446524 -26.0842224155
-5.31726884673 -2.74147952819 4.8564077153 -47.5061505638
4.89933073512 0.236634788806 -32.4406048198 -0.0619641954904
7.56338798957 -7.03150626065 -20.8681228535 -64.260291755
-0.0183973600251 -0.889952995313 13.584989805 -7.2959761543
3.1423418691 -2.04382812527 -2.20095489321 -48.3052835262
14.2654850214 2.18482170944 -5.49507358792 32.7633606096
0.0901051550503 3.5491410889 9.32373507376 -12.3128824431
-5.00542082811 14.1814044252 6.84110656716 76.1152175832
-14.6130984448 -9.05766256641 14.7304550954 1.68646098583
48.5098930994 45.5169666707 33.7836706043 131.778515997
26.1059690054 26.662776196 -0.465640886132 58.7436488607
-50.3638703801 -45.6561500761 -13.1110181315 -0.639972872037
7.60442677638 -1.24882974708 -37.6033458749 -38.8663127895
5.83627545092 -1.64295792206 -7.22232896763 -76.7537152682
-28.7966968121 -9.29619917 5.51243879734 18.1378854994
-11.8182508676 -10.2489456608 5.19400737344 -33.8757930838
-3.26698571965 0.837340733602 -20.3048473806 -7.03790295724
-16.2666579046 -8.20410224013 14.5363953487 -44.439389546
-5.36366190472 -6.03088121498 1.83900938036 29.2368688967
4.41564346744 3.05150223378 14.0596085081 11.6736384138
4.40620021782 16.4275836974 24.1812128467 -11.2674767783
7.30768156955 11.5824736052 20.6089512834 63.4581453144
16.9210063008 14.8641330906 5.59089441076 -13.4898703128
10.4585981218 5.65016029704 4.88232579156 60.4602175304
12.148776118 -0.602689842943 -7.80817851767 -63.9471763301
2.59492461261 17.5572283381 -15.6711904412 -56.1011126538
2.24398784145 7.33077194935 -10.2045946801 -55.1367163781
-18.6643224312 3.01222109489 9.37647199375 59.3341352801
-15.3414278922 -4.31472075461 -11.5840541391 20.7712831205
-9.15789517415 -1.88702736087 -14.4255603193 -58.4206911243
-1.50124002826 -3.41666672023 -6.36341744627 -0.682609808946
7.09852094663 5.25981608432 -11.1651871627 -50.5954941674
2.37236497797 -0.760577781307 -11.1796573048 18.3891482041
-14.4236927813 -24.3277360067 6.59354462577 21.9834395843
-5.92157717414 15.9846125686 -13.1600375613 11.3648048704
22.1230424476 -19.6336340005 -1.58097855426 -7.04350708455
18.0234687057 -2.90334815285 16.7169573634 42.4015189722
27.242854218 3.45431907624 14.7681122709 -4.9646968122
26.064103137 7.2363543769 6.34878761633 -3.71551664326
-4.30370542841 -0.273127178962 11.2535222677 34.5244233587
-12.7856821922 -14.1114759683 -20.6618563357 -4.56490346973
-13.4614588378 -14.2783310676 22.4347944963 30.4180383305
-17.4091688189 -22.268467227 10.103983964 -24.168655942
-6.2508248939 -12.9453026937 -10.7582779916 -43.4765255674
-16.0494504267 5.83518306119 -6.39106589623 58.5392126003
-33.8671249533 -17.3218040597 -20.5045895629 -50.502292561
-3.26270798735 6.07365325168 10.9483515241 9.10503660477
-38.2137394152 -12.9776945991 -0.0541010804468 19.4656514003
5.50277658995 3.970568135 0.774537875662 7.17490565307
6.56804859898 4.33854353589 -14.7449598704 -1.98677552309
-3.68231998867 -8.55595526994 8.0700146925 -2.08307758542
0.778243939871 5.57417921614 4.18189812703 42.5223765329
10.941149534 7.00241333804 33.943339859 -13.0042319475
15.0240619354 5.82978962485 -15.8720841698 -52.3740315994
9.16771513032 18.0125746021 20.739034579 76.9287133977
-3.7164402767 -3.71228439006 -10.2427505151 -57.8262909262
5.33553903659 -2.35968799669 0.43460685879 -58.2212089539
6.65328312205 6.75136542037 0.149571915946 -41.0194384414
14.4089287478 4.96992788839 -8.57257048344 13.124931486
19.4714709744 8.43109152382 -10.7624274788 -13.6038086734
-4.19943290583 5.06454413551 2.50434046755 91.0038241229
8.48612410527 3.06347307414 4.89448586378 -8.28881173129
22.7182586991 4.2652935962 -5.38681199049 32.3570544365
1.9879633967 9.64623907552 21.4263262576 39.5952755009
16.0854959356 -7.34084590705 -9.20014053353 -50.9502216384
-3.88522438587 1.06252957793 -13.2222352289 26.589840821
-20.6338615855 -10.2579502987 -2.16756953655 -60.444931031
9.88267537904 27.7685487326 19.5883587127 61.323158625
20.8235766053 30.992609746 19.8504294069 85.9408381342
-38.9761328812 -33.3043747368 -13.8005731453 -32.4272824277
21.4036519954 10.603191126 12.8291128113 -2.89904044556
31.8169216613 -4.26988535211 -8.41320350631 -24.5588513456
-34.4049590153 -39.765282965 -13.7231393356 -85.0299149647
-25.8742012295 -19.7792133961 -16.9517715773 -50.8096547299
-11.8087111481 -12.3586589187 0.323357050323 -33.2830916713
-19.7518725879 -10.3237489071 -7.69117318541 7.88942035389
-10.1093803846 -3.70661801985 -30.2718712583 -13.8442069597
-11.5443040542 6.26003274997 -14.931046046 -17.098016539
-11.3395409737 4.67068699053 -4.49577481226 -22.8064555794
-7.31699585911 2.98400172233 36.3364466576 66.0425704144
-2.58115286495 13.0640533747 -1.76371460119 47.2807393257
0.766059547001 -0.986998721663 24.2259343543 60.6771941532
17.1581292644 3.27098003991 10.783282757 8.09178135616
-7.40670338813 3.64471589703 -10.7422358561 21.9202452459
61.9948207 30.2617383853 17.2042892875 46.1674877511
15.4781101272 5.47302559019 -2.09009733571 -8.68152314881
-28.5506255571 -3.37206550618 -8.53083194773 20.0334153923
-16.9061030675 -22.01734923 0.714805668749 -22.2264755537
11.8213888799 1.24606702401 -0.94560378807 -7.62959390723
-1.70673086111 -20.6699456686 8.87861444279 21.5698693183
-11.8867094519 2.61378909241 5.62649879836 17.2085331215
6.68216061583 9.00982720013 21.5481325716 52.8059800533
-14.4799948869 -4.02464251317 10.6706790403 -5.11941549648
0.878535777268 -1.70225874987 -14.1604167224 -77.1683074659
22.8718499095 16.4113662519 11.6169859534 5.7129956133
30.2987492147 36.1666999759 -6.63657470527 -72.612510561
10.7054566323 25.4964458068 -25.6103492057 17.7343358419
12.8718127498 12.9927672115 -3.82309952681 54.9529668888
15.1217502893 10.633855378 -18.6457294934 -31.5843397914
10.5542862329 -7.79794300384 -3.61307519874 -61.4222797684
-0.323658120037 -19.7668260767 -19.5936169627 -42.9883871667
7.30632287836 -26.6446474429 0.170678813705 -49.917687854
-6.83571174072 -22.1913852919 -10.5248404195 7.00357207183
-19.7454882924 -9.0342416361 10.6064491139 35.6416841751
-61.8074055773 -3.79777038656 -10.0599737822 32.341269909
-39.1827416078 -35.6686085685 7.55781200113 -36.9599040437
7.56310108392 11.9969999392 18.70257475 -0.948268862535
5.35329075525 -1.19233860526 13.1734242778 5.11722590306
-22.8669809511 -13.0205719783 -17.9238130374 -95.3625654183
-9.97111246412 -1.44790653815 0.460229945827 38.4530745123
7.34272586095 2.68055821354 9.1989279397 34.5444335834
2.83169426012 10.450496821 3.25990869438 40.3192858035
17.2911331418 3.94912531856 -1.53664189536 29.5878834192
11.8097907999 -7.04784880329 9.37468220031 49.2308656014
6.35981776375 1.92799388608 1.35720198101 0.365968023899
-9.99974560375 -0.517309849298 1.58623215105 -33.0554860419
-5.03183884823 -2.06843526695 10.7522663074 17.2245021193
-4.30932377578 -1.19912017981 5.63836738486 1.77573601224
11.6230959904 3.40469486789 5.52462481464 13.3704498142
23.9517520996 12.8939170889 5.61398034935 -42.9600910571
38.9861670989 33.2167170786 -4.49541662692 -6.38631542338
13.6129209762 14.5366385531 -7.07207568871 -13.4488671332
-29.2396750558 -18.7758229204 -32.6225707486 -14.71150009
-13.3154897547 8.73332718302 8.62066139706 -26.8557268826
-7.80758676861 6.05431571651 -9.07042679054 -23.2465462953
-17.7653654904 -3.57592941023 -1.29151103498 0.860130556356
-7.41889983413 -2.9521009451 2.81092695662 64.2275795188
-4.27375608512 -17.7025024494 -11.1477372578 -87.8555622751
4.44385780486 -6.68925164386 10.6743453312 4.36698310985
14.4148270435 -0.623773846901 11.0412831802 98.6453440064
-7.86056196134 0.917035101308 11.0660079491 -2.27475234001
-3.33105095884 -3.00955841083 10.6570387971 59.0562027532
-1.76794179223 -6.70201744346 -14.7054541241 -10.1584002884
-5.03378629703 -5.46961241652 -25.0653809279 -95.4441396077
-6.17732994897 -11.0275342968 -7.52722539648 40.6003397575
12.8006404865 5.90964935661 -15.502888562 -58.7553782336
1.7604835417 14.4324765921 1.02183677799 32.4183809556
46.4108672566 51.1152023388 41.0733431636 80.0359288203
42.5664123233 31.6998360206 -12.0351211415 37.7823727089
-42.570018354 -33.1061606968 -15.9414731293 -51.8474866129
33.1601359252 28.2437432334 40.9655895253 8.61275791131
24.2375306173 -6.39135486425 -1.35905147087 -14.1849183389
-32.6099007275 -31.1672815421 -19.0795183751 -43.9401483838
-39.2178022762 -34.8995911596 -20.8184062481 -84.1547391892
26.0050718643 10.5488136756 5.26307241559 33.8138098128
-50.1517257834 -33.0534192168 2.04730655826 -38.4682163326
-31.6467832722 -18.2198102476 3.76577833514 50.4815012024
-20.664406754 -4.03761517433 -4.40216044341 62.3890124912
-16.3008156541 -2.6327398713 10.07915172 -3.44587186448
0.299903083467 21.4717848018 34.9753137345 19.3960338233
13.5335482314 15.0776851322 -6.831051325 -5.82982827636
10.7932616552 12.0588964615 23.4558023163 33.2703107492
7.48079092864 8.16471902637 11.3217927398 17.7091613383
17.7962361797 7.02019636696 -3.63207128308 64.6871385713
14.5104647368 5.59249127595 -18.7475866125 -77.6145055232
3.19356643787 10.3275302232 -8.77903569112 -20.8596018853
6.62196492915 14.0854034862 -1.76625683073 -0.550597470047
24.5142062241 -2.82302889113 -11.0362210076 18.0731922852
14.3155925332 21.7880576651 21.4588857141 -30.1749110507
14.2222396809 17.6970118665 -1.3000176139 39.1963878705
5.06026400369 3.45294723046 -21.7983158514 -74.1886641279
-2.88682003472 1.913402503 7.81431383459 -5.95762638577
-8.77047560978 -2.02834475403 -33.8447837996 -26.2148919357
-4.90067540168 -15.4151082872 -3.59592556087 -25.2378777753
6.64907750732 -12.7274040338 13.9430992642 -56.126448981
-1.41187480171 -15.1427896809 3.02782324417 -15.2139529986
0.928706674178 -18.925996838 -13.2922915296 13.2168856473
-22.9330840688 -9.36597036928 -3.72955157964 115.684995114
-7.78842981447 -21.7012368805 -3.44178318782 -60.7204221945
7.20597622361 -12.5410312666 -10.817468137 -47.6010629157
0.381277548811 -10.3920537966 7.33522698268 30.8263350906
-11.6474248037 -5.84482752211 -4.81718406571 59.854126635
-6.36933885313 0.261483982419 -12.5221219523 24.0046970174
-19.0541164647 -4.94218306648 -13.6838421683 -1.00396204079
-23.9542490217 13.0306870999 -6.38089795777 40.4410371112
-5.41892827069 -11.3825286733 10.9199046334 67.3654074931
5.07029484613 2.60649743598 20.622533337 -42.5725960436
-26.0884172936 -14.0755136857 -3.98472051753 20.9475405771
21.633212464 11.9526451815 10.7261783947 -25.7551795413
13.557528361 1.5430024969 -0.897265956358 16.5124500777
-13.5329102339 -13.1722656875 -10.8811349745 -23.5355102433
19.4581988668 14.4483438647 24.6840744794 20.7419044594
5.11860805015 9.21964649875 31.8724714905 -16.9041612759
20.2541131556 9.42908011806 21.3066114874 5.80354475498
1.20746046484 16.9250563758 16.9031551904 8.12315811418
-3.39562713092 7.18117303388 16.9711519846 3.82074291509
-6.25602571103 -1.00803853104 -24.2158509247 -23.0705579146
-2.39286721807 -2.22443321016 -6.11648227115 18.805396879
4.3070759777 -1.6123402866 -1.82830523277 -68.1977200752
-0.705056425871 4.42441774816 -11.7884450411 -47.1725662383
0.300662675701 -2.97679936257 -30.563942292 -36.7015154455
7.19961146685 -0.998040244497 -19.880721515 27.0685572659
3.47249793898 -4.78954266548 7.13958545094 -20.4907352839
9.60078976425 2.02837823789 3.97329104105 53.5987794416
11.7645497359 8.34707985965 12.1264798591 17.3308710973
-1.40737748478 6.26620365386 -10.1712920832 -8.58903586899
32.1129528296 53.8176133253 29.8960341997 141.806785719
30.4923482447 17.8769649555 16.2711463426 -0.848326140914
3.19806418004 17.915442299 20.9835378137 6.51224241149
-32.5615595598 -42.8374053054 -31.59253539 -98.7934621341
12.5405679703 17.8094981268 7.28218408834 -1.97843975226
-6.48546234496 -4.89346806039 -24.434045444 -6.4913563136
-11.4771438126 -15.3320101211 -24.9012616719 -41.9857466737
-24.6348872246 -28.072427394 -33.046359814 -40.1672564312
-12.7674376667 -20.9877269424 -11.8827280293 -15.619918489
-45.5102854127 -43.9023036457 4.12700376315 48.5523817438
-9.34825909261 -7.55819953386 2.77451584814 23.6699810311
6.98847381621 -3.72717166151 10.7425761538 8.22009915787
2.08359099865 11.8732700156 -9.96374768809 -64.1195532427
-11.3462799324 6.66503132824 25.8711741602 50.7503554319
5.01166075325 6.11302100395 41.4689104164 -13.0121381962
-0.27101311696 5.60707237217 4.57341372554 4.66063804081
1.37981733289 -1.0985599824 9.64049690081 20.0335087231
4.33276689999 9.96024897788 -5.56228657057 96.1368086529
5.98656845652 5.89994811511 16.2392630268 -23.5344368496
-0.137261136145 -0.401401085133 4.39779903666 -24.024625232
-9.58585848793 -2.19440425792 1.3377491974 3.79590927965
30.7499779465 31.6165521906 -3.40546882587 15.0413406955
6.6770256962 3.4304426604 5.23777288895 -57.8526610722
-19.4823589113 -7.57847671852 14.8328095006 36.1747006964
-13.1434945199 -12.6992954624 -21.1905724076 -16.7656426622
2.98225868111 -5.61048753416 -8.93998527539 -4.58425285456
12.2062106828 -4.16386162288 -2.0540212708 11.5164459975
20.1622516326 14.6144244056 -5.1552479528 -21.5710931201
14.0132743649 10.0825513203 -17.5923293356 64.6392633013
9.57494509455 4.51182151866 -12.7326096631 -15.0857583137
18.1412369247 21.5256161879 -20.6676433516 -35.1964234668
20.3672503104 2.37046288189 4.75785186494 -34.5228877113
8.25641436558 2.02779213002 6.74483522219 5.85299058999
10.2598708358 -9.2858130398 -6.34344858304 -10.75167286
6.98502005809 -5.37322410366 -9.80238818513 -13.009466538
-11.3290059289 -11.1697433859 -8.05446147392 -69.8465651683
-13.6839399222 -11.9378434198 18.6291083726 61.7641399249
-22.9093405239 -9.29441842106 0.0359943391875 26.5484282526
-19.0494041486 -9.84309750116 1.78184711241 19.985479162
-61.741541263 -22.9400388651 -18.5522569721 -51.7373607021
-4.28069775476 5.25927116868 -12.3488333597 -72.693838109
-0.940111005269 7.26475137284 8.95528473546 4.58129809715
-10.4320461163 -14.1748024144 -20.745030398 -34.7671025539
-25.1793252425 -7.77272288755 15.7530260894 29.2882678422
-1.10184513144 3.61764176556 10.118399532 34.7612844837
-3.94956362855 -8.416218835 16.7871392177 -35.9711358558
22.977081882 12.3189623854 10.0694466729 20.9881151644
17.4244848044 1.26615456685 -10.2628547905 26.5129154123
3.82138968661 41.2393872258 5.56122176758 66.6198465072
14.327066805 7.96916354214 11.8247152301 26.4797345398
2.57884015029 6.18913403751 -0.450989229448 -32.4745487177
-4.66679594257 -16.109623532 -0.837911634246 24.4619727162
-1.8344803537 -7.86291798034 -1.4628993486 -5.19190362986
-3.51895574244 -11.6480873674 4.31732022777 -85.1635680178
3.98375942268 -0.148726696911 45.2116360928 24.2144340727
12.7307799231 0.962728312761 21.0442133457 100.428350015
4.1192931742 1.25952268266 12.9166622335 20.3912212867
-16.217445098 -26.4694175282 -25.9194421379 24.814858288
20.6861280024 23.9508643153 -8.05242454701 -3.01854215941
3.32028999909 14.1196751599 1.24647047941 15.925105111
15.3233368844 10.0213677243 5.50937230681 -49.99148192
21.528923958 6.00415258509 -24.8807764296 -0.717245857882
5.45428185452 6.8603728477 -7.9226882057 12.8651344363
-12.2125487592 -28.6568239845 -21.4711563203 -70.3256445365
5.2374673395 -13.2726476807 -12.9636558103 -38.7154790714
6.06574326978 -0.797312926818 -4.82932086333 -15.51383804
-6.56925485509 -1.99217229861 -15.6274529336 -49.9932948405
-13.9173986595 0.343341290175 -13.1454100189 33.1398458221
-8.80391455196 -1.85033792744 -14.020118242 -36.7535634642
-11.5341351824 7.85525674911 -6.22635797208 15.0851829621
5.24359056012 11.2929312924 20.2353009313 -57.9741339185
-1.79330335509 7.23400972679 18.5482730584 56.064275092
-2.10456289945 10.9954098761 3.36759654199 63.7615957043
27.2821038263 10.3213023895 32.646512431 83.4587938325
-14.8277000146 -1.11119248385 -6.15635165837 64.2375981396
-15.7653746225 6.85221155052 26.5465298967 59.1276680396
46.7365082972 49.1636958452 4.21996609894 66.3582075457
25.7335576346 3.9930198088 -6.73025557302 -3.82437530398
-20.6848526365 -38.4534473992 -32.820949363 -134.924825243
-25.432238145 -20.9941208527 -8.28140439954 -74.3238987139
-5.83796228396 3.47928609143 25.5503298329 -27.4125737624
-1.67568157361 -3.07540129175 4.20329667276 46.3472825179
-6.54901376315 4.31630290621 3.42162406352 -31.4376013846
-13.8457752282 -15.8752528589 14.9235828673 -7.56604613894
-16.5758061222 -14.9548718282 3.01321276151 11.876085322
-3.75591604383 6.90977993989 -1.04803084213 17.7506168021
3.16417599357 1.51840579948 0.960060008601 62.8217730348
13.6476841633 16.3669420489 -6.23829059158 -62.1146600649
11.0194918089 24.1049439708 4.16689800732 -25.4811114928
17.8182587167 14.8536438289 0.806028524909 45.1939083267
-3.10217976559 -9.82059264595 -27.8697237812 -131.086044735
3.69669238569 10.2041718387 7.09691344727 -52.671997176
-12.6797371749 -14.1993564298 -10.3103653775 23.2509717124
-35.4394267452 -42.2076763201 -20.5228905157 -62.6926129738
17.8924528625 10.5126283884 -11.84187254 -17.4522213649
18.6629087066 -0.202528518709 10.7874388873 46.4244793154
20.2108743721 8.05905277246 -18.5824372506 -41.7748468291
-27.5193396299 -47.4861588937 -10.8565575804 15.0321446572
14.3722046504 1.0565409757 17.242077315 82.4016722213
13.7029296256 -14.4202455218 14.7784374186 74.1943325182
9.68865892052 5.22902204434 9.52763227888 16.0732922113
18.3325735494 14.2126430154 -9.67389669921 15.7394788968
-7.4737325314 0.122192251873 24.6443326227 -7.88258790916
-19.8169122276 5.87263446939 -10.4625832719 52.1393153931
-8.4647122279 -0.273987205953 7.97834762349 -66.7445156874
-14.868635282 -6.49063181415 0.640797321976 18.3615615159
-19.2311278867 -10.9733204711 -27.0341219625 -79.2963939874
-22.4207881509 -4.59380643885 -4.21915357881 23.3424788242
-15.2866519499 -6.03968457888 -6.40272614472 -19.6155977752
4.62969662836 -7.21305306467 9.77631538049 41.6615099622
0.502541097529 -1.02878144458 30.6216012775 -3.43272907604
3.35608433819 -4.61909674479 5.35645240156 80.7982986838
14.3455497187 11.4748813286 2.73965532939 -28.2327923374
2.89015881584 3.48891914975 -0.89762566181 -16.0799837262
-3.7063644662 21.9929684988 1.59265137411 57.8623408337
29.6513774388 7.02889776762 6.79851303697 -58.9059398139
-34.2045673868 -23.7083599879 0.194173126466 39.5920995879
-2.37932871567 4.65512252573 -2.96385513836 -24.2867807978
-21.2470372273 9.24291530539 -28.068151704 23.163402248
19.7055935266 2.65001953628 8.16097243371 15.1644853799
16.5167825492 15.3092319383 5.80116584873 25.8674213102
14.552402381 16.3933103238 3.37567467793 -3.33953364576
8.48610119417 5.38534982578 9.40100830592 50.3176273429
-7.82264440411 -21.558750759 -17.0158113534 -132.031861181
0.0696407365363 -9.79389174176 -9.3625336366 1.96831088316
7.29216964497 -11.4448521463 -7.31307565086 -87.1261988716
13.1708010348 -17.2988053651 -7.07964990333 -78.823298586
3.19523661626 -7.10766602559 -21.8206164731 -57.010133362
-8.52788073188 1.66819455283 19.5177198119 -5.32990765347
6.87006897086 9.22041491952 -12.9711915887 79.9635668506
-10.6098498049 6.91699622345 -7.07086116516 44.0295764389
0.919735885054 3.69395344379 13.6561616018 -43.808353126
-5.56845014545 17.31085348 0.96773379159 12.6289509363
54.3599314439 61.441209738 63.9763721624 196.816054937
42.4884758471 35.1241928586 10.8350095149 46.7016153534
-48.81617147 -38.3349419746 -5.89613723926 6.86950909584
-17.949821611 -22.8073209938 -23.724011579 -104.389569266
40.5670764447 8.54304627786 17.3541106666 40.2599185233
-7.00612445071 -15.1443317626 -21.3592810328 -31.390498081
-20.3706577116 -26.7768218772 -3.13258332644 -65.9770997067
32.5565859035 32.6291672412 1.45213902978 48.9239034792
-47.8226054461 -35.7043703815 -29.1609869307 -81.3983015631
-1.63201680936 6.38939904401 -2.57872525979 -28.8147987313
-27.3885322641 -28.2689595386 11.2151356879 2.11623585425
-28.8556573975 -16.2390701678 4.07140035716 1.73675285161
51.6761213918 30.6803635228 13.1590911187 34.0152065908
-37.5404591605 -5.08699056191 -6.73874797402 3.4972487666
-31.3128283171 -17.2528399606 -10.4137574934 -51.588108349
-35.5594544823 -23.6604628118 -8.61374629124 20.7735165982
-15.3428636795 -6.29418109331 5.63856669858 45.8056658611
10.7020378932 17.0854044987 18.7622858082 58.6014812
19.9478144694 17.8469121497 0.191641862224 66.462599285
18.1715537561 26.4379542535 2.07967504438 -36.8591731679
23.5527617405 17.3481362969 26.9388962856 3.06425552258
7.54769123023 3.58544051195 0.174283716069 -23.765903041
17.6115165836 6.79062307945 -7.90940829168 -41.2656035872
28.9712228713 11.8445761178 -9.60156400092 44.8914155461
4.43622680559 0.984348659788 -0.849740158422 68.3354219
12.4577619469 -1.08852693146 9.43153875345 -49.5745596856
19.0226216706 -0.163373182673 -5.10530622047 -11.1950059588
9.96261427299 9.01361628869 -9.27571128755 -12.4078049011
-16.0240047497 4.3790223097 7.16710704572 21.6497986925
9.63000716524 -9.98444868678 -14.9581707149 28.2963567042
-5.46403099449 -13.4474144799 26.56201806 -45.5261464921
-13.3702889588 -8.80388551134 -9.72901076313 -23.8378876883
-16.6464142813 -3.78145536425 -3.93496625697 -18.7255988817
-9.22774323473 -2.99232366884 -15.9300782133 22.1928649411
-32.8230695118 -12.4185843822 -5.39952975321 17.7659485338
-20.1839372715 -18.7430123492 -10.3204056923 -57.5684753322
3.53815927213 -2.3552217783 12.1208734085 39.1130648996
-42.9480615394 -20.218586176 -21.8929774575 -1.48713460332
12.4544385997 2.43491670392 13.0417007664 25.6870028252
7.63156353657 8.67981849393 -1.63469954168 30.1255473045
5.22128830734 1.05937189662 -1.29008402697 -22.5092553526
-1.11535266613 0.287196906033 -3.07317462134 -46.7235109106
-6.13553172237 -3.41267544617 -11.7996164487 -36.0196516208
-4.58048997329 5.27969150108 4.11951608546 -55.2545522153
1.53171955574 10.3752637421 10.5603305137 41.4717025452
12.7677173733 21.2415875137 -13.6005502491 -69.0214073675
9.94447174171 8.31231253794 16.9091903566 60.884970473
1.37222704162 -1.63894154114 16.6026859599 49.9818821615
-3.59978601127 -3.42768243488 -9.71083928703 -8.201646992
8.66935611562 -5.86691979122 -3.49814796234 -38.9260008818
6.48360698623 -7.10473086657 -16.30124013 37.0393165584
18.173276528 10.7730336977 47.0583958304 109.805384555
15.8241160167 17.9517623219 13.1439745038 4.7360558856
0.748123799686 14.9575629137 -3.99005401751 -50.9748304284
6.11100151256 11.9339695984 6.31778779649 70.6229897707
-22.9439605286 1.84321981935 -15.1368548722 -90.4792740651
19.2851553392 -2.45990026268 9.61027344987 65.2324065245
12.6256962128 0.0532361093876 -23.6010032689 3.80490292026
-44.7514801271 -43.5163491535 -4.78714056354 -21.3898867499
0.12792723712 -14.4492999896 -4.01473383124 -114.766800097
-2.22184087549 -10.175995286 -2.62049443577 10.9580988549
9.47133620083 -3.55587096258 -21.5828554246 -92.9911445038
5.13834498496 -3.93592271341 -2.6069744187 41.8818255989
0.71088282816 6.20479698457 0.0667736779135 -28.9332655901
11.2898879712 9.96731719949 10.4041586335 -36.9541573807
0.501776699953 7.53458509646 -2.82702171162 30.5093209537
6.52513843651 6.93386985481 -12.1797587633 -29.38404414
-8.74714474599 9.33222937844 12.6293360818 22.7058178497
5.53499375253 -1.58286218578 -14.1195421761 -7.36185179178
-11.7306440537 3.12038851335 8.8013507074 75.0711893973
43.7494519677 41.8214110562 28.2767457217 92.0736892382
8.11378120291 -11.0033491661 -0.00960684319233 7.91310614857
-40.1116407437 -38.0019743207 -19.6982755734 -75.9022914808
-26.047007152 -18.2758793456 2.3910902812 27.9979087244
-15.420528498 -20.2005627682 -7.56479846839 -3.03476631305
-13.7300331597 -16.4473777862 16.3405482123 32.8263612362
50.2741406919 23.7836063918 9.6328416404 70.3792899121
-34.6779468131 -27.9324599691 -6.04460756127 10.5258898048
-25.5731531371 -14.32884687 19.7645758003 -57.1640295845
2.17963578095 0.97650218327 15.5521646955 -6.67966158429
30.0107501987 33.3222399357 16.5388732551 90.6914648771
5.58045340588 31.6911986956 27.7617609536 1.5265674804
9.77923698811 26.4798138908 2.7579494916 55.1636363305
14.1453070338 19.867328248 5.11089837782 -64.868351911
8.19202118306 7.89151464138 -20.9905910917 -54.2340081398
18.0375389687 2.77486297268 -21.6172616543 -25.7785040639
14.1133589212 6.06997914742 -13.6114782283 -38.7058192224
-2.07830227769 -3.98865624048 -20.7122928978 -6.80685155234
4.74006913842 10.2971107438 -12.4224440967 18.812648509
-26.7459376604 -29.8280524377 -26.712416338 -37.5292100087
15.0476993022 8.14320150061 -28.2415326708 2.95635164761
9.13163474914 -2.14781579393 8.13118924692 -16.9455994218
-40.8304798775 -56.4654089788 -28.8226565577 -62.8103231553
4.05465375707 -5.28974483732 13.8884575409 -0.164500945164
-0.640195378186 -12.7304197375 21.3650789255 8.19681170942
1.88364986498 -9.57952483011 12.9585821931 -46.6866582671
4.82106914795 10.105329677 10.1955966493 56.7351590467
-5.33317221704 10.5278675977 12.2810667178 55.1663107792
-16.8102274378 6.75282726764 -5.3657724636 37.9907510476
8.63538128611 11.5113761095 3.2411884747 39.1021986639
-11.5170050487 -19.3813975365 20.741334928 15.1118162199
-13.1341480189 -11.2349376525 -18.37569279 -45.1641176252
-35.6294518002 0.34176531116 -21.7245683314 -11.7057618626
-2.20843048853 2.27126908636 -0.677936313666 -26.7424292759
3.39545135668 -6.47972796026 -2.79506495134 -94.8847629548
4.48653847493 3.79740278861 14.59373625 37.5714964351
1.23199313378 5.79995188641 3.08758335014 35.2856498766
14.0862213923 16.6110520412 -7.62880816373 -22.5683893108
-6.90154898567 -0.0627160103851 12.636993244 -8.03566665221
6.10432905654 13.9478194695 -6.66633481874 28.1964539996
8.30076993621 -11.8638169788 -5.16117661582 -58.0456090999
-5.77764807962 5.7435085101 3.91810845021 -4.38743165256
5.05484861905 -3.10508374996 10.9106179925 32.6504611219
11.3764734702 -2.32292823913 9.37348597659 -1.44959150573
4.40967483406 8.80768516007 9.53375782943 43.4423529899
-15.774219803 -22.7798853919 -14.8852749034 36.6793550836
10.9044738986 24.155415291 23.9477913667 33.2875850854
9.78745397347 16.7683671029 18.7656228703 -19.5687258913
13.1898699724 13.9971521558 4.00307140766 16.5515587755
5.77007061692 5.63012574309 9.49220853462 8.70292417953
19.3554994802 -1.28792354286 6.30820515043 23.8503053809
8.01301485422 -0.22784072176 -15.0319270499 -9.56872104527
-39.8184672702 -38.8454499786 -30.292414528 -31.3079677014
2.15827640826 -25.4786406371 -1.54711651955 -100.413793936
-4.95807707858 -16.1272056517 -6.75411935541 -67.3541981882
-15.1494548536 15.8648308469 -23.290097395 26.5995875919
-7.68268109915 -15.1164171977 -2.76317126572 -43.1067327451
-21.0067593618 6.14904383266 -14.8451661147 11.5713788554
-4.34683832494 -7.59115725466 3.4824766795 34.1120868259
-13.1068406654 3.74368850264 6.9512693235 -8.86339900077
2.41860497724 8.08413565937 -13.2483214566 40.5013762923
25.2176554538 6.44617079059 -14.1595688644 -40.8588231626
-1.84032008368 -5.56213314339 -7.21595110468 4.01193913707
7.5241924794 7.91285208458 21.0402353962 46.9660983
57.6700727119 56.2028859423 38.8614231062 147.566831492
7.75503495195 -8.00599600763 -14.1659537745 -58.4919066996
42.9656113314 27.3856587816 32.0525236159 63.218173332
-15.9285151399 -24.2192013015 -8.28127931345 -90.2803642809
-18.8713477298 -12.6260439377 -6.5621441374 -47.9885144453
-11.9410318842 -4.80299320374 15.9433397183 33.4450665198
-9.36510024035 -4.31305238953 7.2241006936 35.8117605119
-26.9777684381 -22.4304703749 -12.4651756211 35.0006887605
-27.1992374914 -20.6487816492 -18.3203449246 12.4140923597
-1.60320076357 -2.73698791267 14.3104525883 -14.3429318489
-12.83380033 14.2215810199 -9.25003550941 5.20180683328
6.99720403057 23.2407527548 5.92213359638 35.3929873804
15.3175261849 27.6152050208 16.2708122569 31.2027289507
11.063655617 18.4513642349 6.50980953914 5.40586334228
29.2545192059 6.82497200766 1.99551373172 -39.6121231433
5.26612166958 2.07559613961 5.03160346857 4.74476470161
22.1363978641 -0.638981318376 -6.34514086263 7.59057226046
0.827929958839 -4.04433813795 -15.0812421775 -19.9794261526
6.18254065477 5.33972434547 -9.52332646975 -37.3591973625
-28.041049438 -23.0121602556 -15.4479142455 -20.2768328868
13.2389641826 20.730983198 10.7762843986 32.4126584919
14.5140754837 2.24657004569 -1.44443868987 27.3217069208
4.598429302 -7.34523145425 16.3647607161 24.8273907906
-5.04605846008 -13.4163212284 -9.05509912643 -97.9493082399
-18.4154935282 -27.4345010591 -3.27106731098 -51.3579385292
5.65739045971 -8.41269916487 -7.97823009849 -11.4694717247
-17.8684334622 -15.6380586422 6.13746344207 -49.9390893712
1.78557131338 0.47441188444 9.20132865163 -1.54581927141
-14.1651751061 -5.64096520707 -2.74065167912 -44.8401486595
-7.18010454447 6.80924173683 -7.61579648141 1.5523988316
-1.93493349485 5.09443086567 -10.8207293907 -16.7324487888
-13.8192810598 -1.89402763063 -21.8226469458 54.9979170297
-27.6632518394 2.49696977231 0.826487595172 -3.32896309215
2.44394266655 0.493732860642 0.612083981324 44.6801233551
-12.4097684104 12.46129137 6.60000916382 -8.46365959892
16.2905163993 14.7066961162 -4.62232796166 -11.4084267088
1.58895354031 5.5908173362 42.4431508749 30.3539594955
-30.1040474309 -10.4484117787 -4.52814166601 72.1268471592
4.1024955618 7.91700308316 -0.905741193968 38.5738917598
3.81948709476 0.0130403548291 -6.77977043608 5.75723141982
-4.4574699166 -3.27118109135 -11.6921617015 6.08019096207
4.93333480866 -13.3458006115 5.95906230883 15.4786251715
-3.48889398512 -15.9462248885 -1.2544398887 30.5034514456
29.7783725505 -1.38680782624 -10.3589366064 11.1153466861
16.4754402478 -4.14000679124 4.88192951074 -97.4457200662
6.4041444427 6.43827092054 10.6472164003 -26.6390692987
5.95529369379 11.1202587656 -5.80874769583 -52.9768188955
1.09874047949 3.84559394259 -8.81063911748 14.8408476389
2.22891025557 6.22236141841 -8.24610173593 -64.3662824745
-2.78969000895 9.41407030221 -11.7729208804 -37.8499257268
-14.2358670753 7.96029497097 -7.71500576759 5.56801365533
3.94133534845 6.67333351697 -3.536609342 52.5193338471
32.3899493349 47.0517875509 40.2854380782 150.192187692
33.0197241045 11.1199752079 39.376320201 69.8352364897
-39.1273812498 -50.2975625723 -26.5140611498 1.66371249564
-21.0232533966 -30.3998712664 -7.59422726978 -29.2908462017
31.1967910518 -1.1268343019 12.802183088 -10.4334520707
19.3927978812 36.4521876837 35.3008095025 -25.6268516652
11.0760160978 -6.11078232424 -10.2022952253 -18.8848923049
-17.2304432706 -9.79916645978 -21.5148685656 -126.615082869
16.1708622084 18.5128672489 -20.2086949391 38.2023962444
-12.3154076382 1.917436966 -9.47999703619 -11.0593895286
-5.36203043539 -25.2158730469 -12.073988488 -80.4166504881
-37.769218474 -22.9455966627 -2.99509455597 25.1440590482
-11.2389921111 -8.13535699443 -1.95154620669 41.8175532
-9.93585144132 -8.52611924613 9.6383702799 57.5872566818
-15.7540362436 -9.96177887601 9.26537161154 -9.56589051719
-7.33020745747 -11.2551487682 -6.35975485683 0.561436197718
-0.225502647117 -0.108359670148 14.8444749972 3.8671226413
6.73272189989 -7.87871756377 3.60026982294 76.5120943112
17.9059193614 8.92676831428 24.7205515988 0.215079917974
17.0790150104 7.40672933225 14.2835627109 84.9127177714
15.459743669 10.1276885766 34.7733377692 19.304176789
58.2537888667 40.3347557632 -16.3470999879 -11.8547429439
9.60996642363 -0.0789235561415 -33.6965220899 -54.4203367164
-25.0398402466 -15.2721406513 -14.9507183778 -25.8064035194
-32.5106527012 -17.1597377686 0.62328546582 -55.1972661207
-28.275143445 -6.29938364443 0.0763405349527 -42.4084546322
-1.52228399956 5.03737336917 17.6326514759 -14.2259110167
0.119633963271 13.9569444347 20.875263192 59.8424052281
9.69075555994 15.4719058867 -17.2408117191 -8.05269648505
4.01271078983 7.20793374026 1.30266557232 -0.58817572117
2.00683960151 -1.31554547878 -23.800171463 -15.9071062349
15.6680891443 -3.14378480356 -17.77345942 -33.2496180729
18.7115750683 -8.90561865336 8.32409477956 -25.1527177197
20.0014104545 4.48523204368 -6.94686623253 -42.6115726534
19.316212104 7.67513211219 -15.4318651847 -26.4424723243
9.12163322982 -1.04269553632 -2.12396102463 -2.2103675921
-28.25655003 -1.68639263778 15.5050353696 44.0265936455
-11.2133054664 -6.33638031358 13.1938030996 75.5861284149
-20.9787725931 -17.6798757479 -12.7426568984 13.2797276819
-70.2991827182 -57.7960858203 -12.8442164206 -95.7542149782
-16.532304152 10.3885290472 9.04729721039 52.0167554429
10.385410302 10.2235191136 -2.06526810797 -51.071401514
-10.8083336821 5.66079750486 -29.3552727675 -61.1996116307
-15.648851131 0.556777839415 6.15531451419 60.7589307246
6.6677524867 -6.98199152022 -10.5652652964 -62.9812680309
-12.8376175316 -9.64943245595 25.3731058207 69.3098484989
4.31220112814 -12.4635346743 13.6195974665 71.3054938083
11.8560251319 -1.20898735474 5.97218683216 78.7432421213
28.9560191313 6.5243617386 -10.6905654375 -36.1888332437
3.95157015412 6.14960132618 -2.21618876787 70.8254265892
4.33160513427 18.4013043274 15.7933281812 -10.4682493309
1.06316218974 12.3046386603 7.44758134421 47.3303496779
3.54253006907 3.44055979265 3.90636959715 -82.8735645022
-4.83452585331 1.56110395549 -3.30683802037 -72.3837243222
12.5965518821 7.60438163791 30.2404146159 4.69388280213
3.62721495152 -1.50537162825 5.29794202074 96.0867532677
21.4057402991 5.45848089042 -0.824661738433 72.766966325
21.8017274798 16.0208580345 8.54112909361 -55.8924145804
-10.4401395259 8.35738657561 -17.6429178722 -20.8360453819
-11.1878585477 14.5894757444 -1.50103562422 15.6779437953
-8.53330804509 7.50487890332 2.87399028571 -26.3012927725
-4.40966379966 7.19401107354 -7.30570803851 -62.2822251941
13.149079555 0.846478568035 -8.36612221581 -57.0131379207
-29.0224481866 -37.1098740133 -47.1004243989 -91.4775992137
-1.83208656018 -15.5879375198 2.77494007116 0.577745184299
-7.40109883458 -7.48279842479 -11.506879165 -29.3530538471
-0.745037395206 -5.02183433632 -7.48881475207 63.4412965432
-1.94558623544 -13.157161522 -11.6331244117 5.58111450186
10.5757023826 -17.9192062934 7.02263251196 50.8026523327
-0.280336326425 -0.859853939541 -7.44188633649 20.3519794271
-4.56995193314 19.5416250835 31.2955964578 -5.58692129317
9.9245542174 5.34907074315 9.11683490359 7.23889226849
15.9027865664 -3.69751792817 7.0494811446 -15.8333073781
1.84475676972 2.30085181915 -4.9275264515 -7.30766304157
2.0506086755 -0.9678102018 8.61936403739 -42.1672646042
59.250388367 47.9194292328 25.222753221 14.972730612
30.9001978992 2.62964169011 -1.67766231099 37.5710324413
-45.463793347 -29.3588521665 -13.4525268694 12.2985879613
-32.4839572629 -19.6121162822 -4.52753860304 -26.8145108341
-21.0907451984 23.9792265729 2.73620392669 78.3831284874
-19.6707150238 -14.9185855199 9.16192194673 7.1524333583
-4.39662702962 -11.098272995 10.4059510359 18.3886814082
2.6800371934 3.52827564893 5.30230200804 -25.4112410162
-11.3563248879 -2.30738510377 -23.8088443396 -28.3758700448
-14.4934053504 -11.3842340136 -3.46448490122 22.9233722725
11.2569681116 15.5780707044 17.0451540464 57.504834895
21.1153887744 23.3003895187 1.63686161131 6.2748313509
16.5367610521 22.3324224543 3.05771172412 17.6922119075
10.021466434 21.4506708656 26.7608546187 62.9026783261
9.32614277266 11.4723759801 -10.57298065 -70.6599180436
10.9248252381 -2.29335698404 -15.7901533762 -47.685136855
-11.8602654265 -5.68292553399 -13.0237846847 -49.6644849476
-10.2798875723 -39.2396207647 -21.0234025004 -114.878159287
-1.21819454747 -0.261197301097 22.1521889409 -5.32156002418
17.1804039448 3.07416050299 -8.76083884555 34.4604286025
10.3000996954 5.27047824798 -1.92016189966 -13.5881504108
4.81038802811 -6.56157635848 -23.9763842293 -36.6293533331
12.3178923205 -9.69870293193 -0.0776227682417 15.8593390228
3.02193735392 -7.71161854209 13.6468787449 -2.78734223711
-9.25488925647 -4.32411489721 -7.37037041664 73.5395275918
-17.7814402573 -19.3984030651 2.65487528042 -12.1389055599
10.8972824477 3.00615678745 -0.467499498975 76.6819533721
11.9545397209 1.30784019592 -12.8187757173 -9.55730646865
0.800502147201 -10.5017304176 -2.58198648289 -85.791937607
-3.76893869368 -13.4663273689 -4.85562858357 -6.81425921415
-24.5524076548 -1.15096321585 11.8809946625 20.6976192222
-15.3488412853 -0.213929952004 -9.64504190127 -9.02674589327
-30.1308155543 -2.04935850346 3.60660891412 20.3299558602
-13.7248831229 10.1658660984 9.09261958904 44.01917628
-8.93757279993 6.1055997517 19.3829675417 46.3490095533
5.99189544995 5.01708039476 6.25168272052 -51.3209843397
-8.13017454432 4.50365216867 13.0980514093 66.5629957753
16.461062962 20.8273881728 14.7066167723 46.2187852832
-10.3710156632 11.9401705995 -5.86568891023 61.7767635267
-5.37419131655 1.91745176121 7.87496335052 53.9270554599
5.55097841045 7.66676874278 -15.1449018963 -2.16282075334
-32.6913921227 -21.321548776 -30.2586152869 -36.6990928089
4.83807982618 10.9979775363 -7.39979652027 -45.6498037241
10.1213113442 10.4178002895 10.4161568032 -16.7698941201
15.7233704065 -3.97162524977 -9.22086541035 -58.4545330177
7.04944950904 -6.10875533977 -1.66176837971 7.90893107695
-6.6164439517 -4.00034104082 20.2883953962 -24.7516773316
-14.1320857112 -16.7326920373 -10.947880687 -69.8335125916
14.0600506687 -5.65250601952 -18.269334109 -6.37293270273
11.0699948465 14.4439430165 34.1296914301 41.5436689512
15.9144853356 10.3322909673 -16.2250062208 -79.1823945515
4.25913255217 1.94497096054 12.7109715395 42.4095282369
1.58346606994 8.33861304654 3.00433808007 -23.3058153661
5.16305592174 4.04401529238 4.00743085485 -6.51918091726
8.6539425066 0.408885550281 -19.1237623223 33.5339805526
10.6194182684 2.32247672825 4.19088051232 17.5971815072
3.26982194094 21.277247335 -5.05261011112 -27.8401903814
-2.79121290314 3.88826475346 -8.46800527177 -1.68497837244
-1.02274134835 -8.05901454266 2.56297134709 -36.780819925
34.1027826086 33.3329735803 25.7916580531 143.971718417
23.2585439972 20.2061106698 21.178219556 36.5732865323
23.2295057423 4.99238074617 -19.2134999218 -68.4895547732
-26.7484132808 -38.1383695071 -20.8608314402 6.07696371189
-10.6166143872 -35.9295951429 7.52151099143 -42.8741111031
-25.4461004099 -22.3449464182 16.425836599 55.9169771251
-11.5058495615 -5.24440414572 6.47504413954 -33.3094350533
-3.10476490321 -15.8657306964 -28.3292716125 -61.3374960631
-13.5938360975 -25.8414774884 -22.5175366149 -46.8738027949
-20.8881959423 -7.79570435056 -10.2599438683 -2.09600780793
-16.8648549995 -5.09174600497 5.70876315944 8.15481442869
3.2640658956 3.48924836864 23.8018085555 -6.64898372171
4.44477249688 22.9980305151 18.3167572216 86.172737649
18.7209723088 21.9069903766 28.6499486834 80.6316739281
12.9280527746 16.892047837 5.30047330548 63.0731414282
45.4325460147 51.2441865514 -21.3012663311 -41.4802003691
-14.6834545253 -6.84864681661 -4.08872368395 -72.4443180188
-38.5601647494 -25.4749606419 -10.0931506621 -6.06589901388
-6.71905054998 -8.18117489565 -24.6483059018 -0.931973169289
0.0119227613518 -9.85328227852 7.59721598863 -42.7680099777
-14.4625103106 -9.03268923682 8.23098320361 -62.4033093701
-3.28313358684 -2.39829977032 2.44840130851 10.6464241213
3.88461459647 -2.36225682244 7.71989192851 -65.3092310007
5.53069162245 -4.72833504735 15.9517196645 73.6736763945
8.49471508975 -2.73906184791 -11.9710056345 30.8237276778
8.95970025633 4.89837400269 -8.9685281484 10.3390593589
12.3814756057 -4.4174570402 -0.88975122258 53.7119261771
30.3370799464 6.16497354508 8.55658832268 -6.60631842319
2.37534327159 9.29904732647 -0.827039651426 32.5669906264
10.9362333074 6.16046970762 -0.729519230116 20.3067522403
5.87816930066 -2.17097118493 -12.0531174755 -5.29022160395
-21.1526949944 -20.9390629804 -1.05361314537 -84.1948303855
-66.816157709 -40.058917877 -4.53427586592 -28.7382874446
-10.4389711261 8.13371932279 2.99242678255 -28.7212715397
-0.325874322475 2.62942301663 -14.2488998438 -36.5367871041
-44.6707708906 -12.235465198 -18.8476633114 -8.11357652141
13.3166729851 15.3833351381 3.15408807563 22.9352744401
13.9884154605 1.55073223869 -11.5616312433 -42.2168024124
-0.907751212626 -0.797666584217 4.66917033646 71.8598327425
18.2490665901 2.10671224734 12.8848052613 -7.07546004786
7.46818826375 -8.92281746172 15.3184644107 78.0955694096
-9.46921234037 -1.96929805951 0.382130156069 10.7590329188
6.77141456097 1.13449001551 5.22672187898 23.4493085688
32.2752151399 45.2469025071 4.46351376979 8.09868108158
18.9523008159 35.242624684 7.08110698473 -12.2614303624
14.4798380701 24.3204972111 -2.80766114174 33.9277518013
17.3367265162 -10.6914530434 14.6655197628 25.5069728201
10.7995742523 -0.293195538729 2.30469231572 23.054395595
14.43437736 -0.97742809384 -10.462646667 -75.8201184538
-12.896022818 -3.29436758393 11.7110341024 -24.4890884053
-12.5699013586 -8.32803586357 1.24111970202 14.3319026956
-20.7389227306 -16.4901368359 12.0203137658 -40.8376997864
-13.0450234391 -11.4517187679 -26.9679492624 -77.6744877494
-38.8387959969 -17.5247350302 -1.09219583145 42.7302427582
2.94244269728 3.85278449753 7.58534739977 15.8331372901
0.207384652843 7.39686734379 -3.00632930055 -10.9270229188
2.97311074308 1.22753281048 7.61244816107 57.7311695551
-3.28026187244 9.58919907284 -10.5100729557 64.2421854022
7.97812272879 23.0694507855 22.228894686 36.1105728075
17.9525041817 8.62882255712 1.95748909091 36.6300343403
19.1573182969 -6.12145156614 1.69829599871 -44.4383952067
-26.5313230798 -39.3381745966 -38.2877139172 -122.16580145
-24.6171452947 -19.6226135165 -14.1243379425 9.67472443186
26.3106427475 37.2414546094 21.2851601074 38.1406405671
10.9563393572 1.94116189585 -1.85803833635 13.5717080698
-10.6632506427 -3.76645945633 -16.6354556629 -61.008491807
-7.21318676569 -15.9470682443 3.37802364455 -80.6597618353
-33.1626745061 -15.6823497961 11.6347533437 -15.5798517443
-17.2922609097 -19.0135706571 15.4180858759 64.313233276
-4.96993867978 -4.83086021597 -14.8043975656 32.7400622363
-3.37747901358 -6.92280351146 4.23107621153 27.7156311669
5.47888635342 -6.29486763581 -17.441002638 -77.0209435036
6.23353726369 -3.17567082411 -20.7903803062 11.7458444009
6.45020075832 13.2898399369 17.0340487212 -1.50872970995
3.26119892357 13.3517406908 15.1307925591 12.6349546442
28.6702137281 17.6310435496 7.79596307613 -23.2280030049
15.3393317631 29.5673932967 5.13847477457 10.8095075546
8.12755181649 5.50011109724 3.52785923676 16.3279918887
-2.16665111806 -3.76919027439 2.60416323623 24.8133302417
8.9508461898 0.787396867762 1.79415093982 12.5515187155
-17.5317657679 -13.1155210635 -0.944827063689 70.7826959504
-3.38032534306 -7.00191612132 -6.601733093 11.4442872289
-7.30497307302 -6.03409122925 0.836606275415 -27.6525102492
-6.7112840085 5.17834312029 -9.13024431057 71.7385103352
21.9545734056 12.7940274628 6.37438892234 52.9226714612
24.6160718105 47.0713432328 -4.22842540397 -111.823757979
17.6150527806 8.4736950244 5.30346233479 -24.8195281196
2.31500058194 12.0678594563 -12.0024227542 4.88614175076
7.61815329304 2.83318236936 -10.1061453947 -22.2828375863
-0.00980184513058 7.42706107991 0.00994983769642 11.3524910777
25.8976020561 -10.6768348298 8.34606777605 -20.0918241222
11.0329663273 -6.27560277982 -6.40402819993 -37.125959224
-13.9718574753 -8.27052975828 -0.554890622532 9.68692057694
3.58213443568 -9.98080623897 -14.2620821497 -57.2672586217
2.83780353396 -1.60959712901 30.6562419526 -8.7387888371
-9.6775235819 2.8691307435 -1.06833076425 1.56813777681
-76.3673143896 -47.3030449951 -9.2815984002 -51.8000145355
-16.6529471115 0.32587988501 4.76147791438 25.7028612884
