130.151366709 8.84213639939 15.532030114 197.107948978
-93.058256655 -131.934691468 -37.2079142804 8.37250599866
14.9433881693 -6.90383842827 36.9034738511 -163.689170832
-116.019229971 -134.310416794 -16.3595613341 214.555678608
164.243005725 172.643044099 13.3461989851 -97.7220754194
207.626161663 95.9691648247 21.8742150049 -151.224761781
-24.7916526139 -55.0500220823 37.0711102812 226.416109659
-126.299403431 -125.276539763 -13.6529705418 -78.3317335055
-82.2158569095 -60.1379742248 -99.5415361042 -169.902284345
8.7450623418 -49.659778171 -7.54427029951 -305.903742826
100.373004383 35.5214872516 8.46857367494 -140.503660683
108.666330807 44.6151793738 1.70053232244 -6.71568973206
2.62939980799 -6.81739806221 -60.0783115437 253.206849139
-59.7633392612 -2.11996705119 -43.9598242426 -8.41274569426
-132.528895751 -200.207937229 14.6982031074 224.909066405
-113.057417285 82.8283274579 -44.9256672561 -95.2407229439
270.684571579 148.81205204 -187.739144256 396.120701211
49.2801144984 -41.629300031 342.613313999 -17.359030772
-76.3916154826 34.17444097 -31.5362927749 -94.747555646
-38.3232268577 48.1373056932 -5.49054432743 159.900879412
-4.83044569686 -89.2350760979 13.0894309603 124.621665504
-36.7796437013 -8.85428071248 4.95882085156 -256.7336449
-8.74592005067 87.4456720562 51.340792141 -55.582069529
-97.5722148834 28.6524702445 56.395661718 -359.389435301
150.760846049 -3.55176117036 6.1507937326 50.6596657985
-67.9180136861 -16.7086152668 -10.5427397878 15.8577184625
48.2271595898 -150.021407734 -0.747131655814 137.880341773
39.8235580589 103.414653124 -81.4920374881 -123.795723064
-122.962584617 180.525463266 -0.6804406242 -394.690499555
-75.8010408343 -55.2270707808 -53.5332650498 174.835801597
2.52865966937 -22.7081354016 5.88055409757 390.310422939
-98.4795145132 -23.7894513843 21.5490434302 -54.7755803612
13.4815989265 19.6883459021 16.4375724632 75.0445093873
90.5539481419 -19.7735386683 -10.9987654919 38.0861909797
-38.0425915161 -61.4607380883 -4.3608808945 -544.626412681
74.4170799401 -5.21629068326 28.8852385033 -83.9737581485
12.619096681 17.0851578737 -38.9235146433 311.3576059
25.4792356358 -254.718836596 37.5450074475 434.856584719
4.24180870542 51.5185651641 44.269045207 -61.3905102237
13.5277940421 216.186613617 26.6678847378 -8.8418070583
96.1004421435 38.2080945453 -41.0643095132 -7.11661177865
-19.1651120667 -6.09092086066 -25.7044174445 -39.4509302329
50.7923366777 31.0264714134 23.0886051201 96.5372283696
-55.1007705368 -39.1042450401 -17.2460105475 -139.537060212
82.4462246076 -64.990927474 -116.88341259 -97.081942022
-102.099315839 286.958562727 -11.1289179339 -31.7149502219
5.02549845293 -20.25501411 227.585745016 -66.0662159489
-78.8828502687 -60.1721376469 -46.3970471683 -187.524516934
-74.8962337594 -62.9702320911 -45.7561212575 -85.143438158
-28.1973600832 -28.5317992954 -26.8889836078 225.507441223
-57.5052807073 -5.13462455637 -58.672270613 140.167249564
42.5001304207 60.9863021544 42.4421376545 59.4716795379
-7.95975478576 -88.9518448373 4.83764924584 13.5912060231
82.085374654 -95.0531369071 -2.10535863588 -161.898900282
104.918454222 139.1247349 16.3900314872 -7.3651123163
-100.91317061 82.5385452787 -116.642752416 -423.345368351
4.15726941469 -3.34311034838 94.6790689613 252.079454576
-133.598366312 -86.815164427 -56.4428631604 61.9771213845
-24.095317143 38.5413016663 -25.9465984842 456.421621617
66.0242415479 91.5822158996 57.0927130781 26.25827526
119.872261038 14.849421967 59.1162155721 76.955996047
-30.4573430735 -46.5390096606 -19.4653188285 -4.99441699322
7.59988256354 8.9781270061 -3.76332602348 -120.405153872
40.2993472094 -87.9336155917 -38.4672501848 102.87662797
13.7277726983 -274.436184598 1.21397755508 -202.945255712
-248.916977844 -19.8651703341 78.9293293683 -277.375260764
59.6410477405 254.985256532 -63.443786356 196.755312732
-21.3392844065 76.6583243772 -84.7388607346 111.526568846
74.1602004672 -25.320439175 -70.0537911676 -558.023032106
37.4651617269 -61.5757083882 127.994418104 32.9867562406
79.3963109833 -50.9567517045 25.1564628127 129.258263579
148.501899341 207.055650784 54.0803192958 317.187091713
76.4601923621 87.5845022793 41.6835583241 -84.0262560669
-33.5040887584 -83.0354267416 -36.2694494823 -119.751759268
5.46262814831 -463.618447096 110.099397295 207.389791755
-21.3970875859 154.083593147 -94.5161473887 140.642937523
7.92495384982 253.019337241 -165.518390951 109.294167561
-28.0010204948 59.7749333668 291.529476134 28.4654966786
41.0268296598 -54.5318152004 -34.3887566548 -3.73019604828
-89.2621404585 -64.0774242449 -44.304052183 -421.966440357
21.832778101 -4.14617618052 -4.51213125342 446.426356219
86.0127744509 37.0815220621 -36.4571054492 -15.646348409
-50.6367552837 -48.981611043 -66.6503474858 -229.356579795
-4.65093717077 15.3393676867 8.31763102105 -277.003651017
10.927522476 -28.640107666 90.2608328339 -23.2321993636
56.2857737406 -213.038678409 -61.2868368478 -212.090130349
-86.0830434249 -3.6122900822 -173.31344941 464.79920181
-124.614389805 114.359460793 -16.9403643411 115.234561866
-159.241012774 -313.720209375 -57.5839515751 -165.755391986
-100.976947557 240.983751076 -30.6781021065 -102.547248553
215.887719476 280.326236821 217.751512683 23.7673751947
80.3794960701 49.3803435497 99.2492467164 105.412163071
72.1571678116 15.0394329344 -10.3934044673 371.146010534
-17.3147135183 -36.3508927463 -42.3177133884 -315.573777374
-56.8194191858 -44.0827440058 -43.0770259179 -230.939296725
74.0040171946 157.796941084 32.6939304134 127.878745533
69.1533564497 439.865200109 24.6679371312 -350.001467599
31.4166986788 216.756275184 17.2171993813 146.415665443
-147.170381929 494.639899927 22.1646428007 -13.6064541553
-95.6728955655 416.999076393 -52.3061340441 -185.649556394
-151.382907854 53.0244794525 -118.851064136 772.070824094
-174.297405706 -159.288972372 -2.27268883798 -173.554346183
32.8889996604 67.4263954925 65.4545237926 -2.32814894692
23.9819215011 -102.911384569 -64.0707060879 58.3518181793
20.9772304577 -296.277604468 -56.0030573026 -350.532143349
69.9765959191 -297.716434543 17.6692938952 -61.5766622844
36.1147793076 -337.186625571 45.703494971 17.6654755919
107.533053877 -404.758161177 94.4538038768 60.6573992927
192.51404165 -279.625662968 80.04540973 348.403577647
-52.0426933971 -236.633420706 -6.18559723562 -3.26797029002
-136.57397899 -407.320710623 -32.7218564666 -144.249123115
-29.2340476211 44.5939181615 -31.1022222581 94.0776935891
179.044582711 48.9723560753 -73.43067462 50.1946909252
86.5239320732 -200.911645308 63.8524435 -684.106120057
62.5755017271 -200.682182311 142.939245054 287.624196038
11.5202024298 -6.21138470075 0.197396647175 -82.3819266162
-29.3326276531 -22.8554245556 -26.9907540337 93.7756854124
-19.8868731124 -41.5374874577 17.8220490983 -228.895333084
77.8967652926 59.2671706779 -42.6872804535 388.63776546
-136.265210229 -27.73049011 -90.8003144063 -62.4722966559
26.7081875206 0.979334837075 13.2909252607 213.264359484
-95.0707077114 13.0715437428 -50.7886234048 330.155595829
-24.4796648682 9.06032178326 -34.2745308021 -361.239247467
-47.3857685336 43.4582495925 -36.6708304186 -414.984258004
-15.152778945 95.9695983182 14.6607579898 -167.810252952
-25.0373533092 -212.349363365 38.3548819472 -71.546010365
2.97802747157 163.154590392 -38.0421936119 132.014650351
86.5708570929 343.424973562 52.9005309714 -99.4311924882
-14.0122439774 90.5723036122 1.14865584038 443.008006955
36.7724959861 190.653735011 12.016292945 -138.372295664
-9.04306185722 9.19153920616 -65.6309551552 57.4154148258
-76.9129446954 81.6930574783 102.643461981 143.102598707
32.2615464415 -20.018456915 31.7182022938 63.8308921454
-29.9303296997 68.3476012972 7.37636386669 297.886798117
51.699980841 206.951792658 -17.0184378619 -42.9736175832
239.351260055 -70.2667452492 144.439555404 -537.82410257
-205.40151002 -364.134447682 -107.563195958 -178.838499279
-196.2087158 -115.321197074 -170.052730854 254.300654462
-156.964357725 125.002250965 10.5975207562 150.044980146
168.383794272 59.6671871047 23.6882962844 158.68539
-44.3005864989 -8.87000593286 -106.817696999 11.6477738714
-28.4040533935 72.831551817 30.4144987796 -316.821137999
3.49391421088 -8.97996384801 13.7137280094 216.223888992
74.8856266581 135.196198502 -3.83397692478 69.9062724179
-33.547067727 -98.0476768369 73.3024775968 84.9404375539
121.412294122 -5.0479141455 -51.8825169428 -268.060809787
-16.6263070597 12.9609966959 211.627742846 167.010655957
30.3553284492 54.1267778722 59.5838415221 -157.445194526
-93.7390040275 83.4930909912 -38.7403639302 28.7122597682
-0.867650025123 -174.775319151 7.95559507343 -15.0970334416
48.6241808005 135.415071045 -17.6976954538 -402.761698498
71.7003586539 130.089822973 26.4563327616 410.793664608
146.232351576 -12.5127017107 53.1986530868 105.22041065
-207.695990189 -102.959628766 -69.7491022491 13.380399736
94.6351674666 5.41941283392 12.9906448706 222.747218287
-60.9104365859 -56.1191806774 -90.7230308869 -587.65695924
-100.219511293 45.7072582782 -143.174215686 -447.176973635
-68.4826448975 15.7963653258 -38.3638783374 434.315334153
53.3590991162 30.5984415966 90.2520647319 197.019279264
-8.39560955928 -51.4117582498 17.8631237379 -283.469892294
135.791933038 -60.1334657617 76.6808212705 -255.660615869
18.457491197 -22.1085816678 0.240856281129 464.597229347
49.0428577511 -176.613015588 -84.5356606026 104.183621378
98.4988540428 104.288077254 9.82134100067 253.69889088
-63.738522382 96.6753553219 16.000652166 88.046993004
-260.378344787 -155.92767391 -98.7607631455 -200.485692424
-16.4258848255 -12.705126764 48.601666439 -215.269921846
0.672760344099 75.6576792625 -3.89997802406 348.240035978
47.3304045634 14.3489676242 -13.6779372292 8.83776642328
214.483845707 -50.3470620813 122.794171214 36.8735075816
-209.157755495 56.835897402 -177.06495927 -93.9595619698
100.750114149 5.86992027432 52.4375749554 -257.16639492
67.4422042283 67.4895759043 12.8579157668 228.886798917
152.913169078 -77.8691513752 60.7580968453 -146.044891946
-20.6642134029 242.696002029 10.3932383537 23.5379439833
0.121262309469 138.362303463 29.601784287 82.6281200162
-151.261732328 -67.1760525444 -72.5865347076 -313.1120828
53.2498359951 -31.7972807613 9.35857770334 -359.855335446
2.96991487554 -31.0075930004 12.8285509846 317.937527346
3.85108070957 -61.5606907295 2.71799703676 118.925191259
12.7901900881 -122.186379746 24.5991005262 33.35397805
-21.9926506197 74.4896605343 -120.901189081 -248.086739346
49.5631183085 73.1848928118 -77.3766436246 605.620199469
56.7008722744 -116.744591188 327.698577991 -34.0846744405
-207.032894893 -92.2896326493 -30.8748912258 70.2157845826
-26.177198828 69.6898360636 -9.63622950671 -530.772689846
-152.225625779 26.861435154 -19.5163212035 -72.5007830003
82.0216530038 -9.1777967872 37.513541152 -44.7440398706
-55.864784091 -81.1409213806 -1.44833028792 286.962392824
14.0921802985 -3.88593977535 -9.92016660188 39.5562105119
141.191984267 77.5551414704 67.3391236145 -327.787882734
-8.99023769217 -90.3857670887 -12.8732459779 160.547055056
2.36916885531 -4.03591349602 -92.1297430771 264.899524114
-422.277055506 5.72817780073 -169.121579573 -20.3992670374
3.49762294372 -43.3077672096 -1.96989015366 35.0738449903
45.969382171 53.7797878245 -4.57864294646 56.4645686533
65.475770056 86.2721729849 24.202693191 -31.1012440341
34.6492238733 -64.5437876495 26.8866397757 -90.5735945329
-103.92070927 -2.03922050686 -64.2532901969 -148.492364694
148.120990639 -7.27276705694 24.8554619499 -64.0363414508
189.020493318 85.7714150559 82.867712816 -112.26193324
53.3920528238 -60.9727790792 34.3136536036 92.3803544585
57.0733892777 -7.89958137841 0.246843348221 199.646898789
56.3788157422 330.866679841 -29.700914683 -248.33163577
-0.265057137698 -93.830493017 -14.4209439198 -140.186581813
-99.7971928134 -152.167516828 -65.9668759161 474.635552073
-6.28032326365 0.193865722494 33.3518793354 261.690973348
55.5169231914 71.9705959608 62.6229542098 -223.338798899
-89.7521215779 -62.0827713305 -77.0834307844 -104.752258102
46.1676605914 -6.43504040448 63.3399898061 -141.746863271
176.963128703 86.1383862113 116.115568567 61.1153074446
16.8812186888 -117.904279992 -107.31299479 428.490078121
-17.8062134435 -26.2323540035 -151.427424822 -248.371935913
-112.343202337 -35.820859983 197.888098663 -48.7674010587
25.0915258117 -20.5248996725 -34.1397548268 -103.16524084
-168.278318388 -14.8813023866 -14.3042247111 139.912524036
82.854631532 33.0438731513 10.1033472412 -474.091530633
18.1167521729 20.699333792 6.51022949403 -114.935804894
-27.020802279 -158.768435036 41.5987149509 492.349241923
54.3095976547 90.6400228455 88.0632636685 -8.22454049106
55.0860248263 184.03763395 27.5327860814 90.3360696986
-16.7132514211 51.5087256931 -50.8645050786 -451.4585751
-18.7993119025 -18.5064529048 -30.7928922446 -64.4285307879
10.8187737575 -34.9638029935 12.6414891765 289.696511241
-142.459777466 8.87565109536 -142.799524579 83.7951756264
-21.7775848766 -64.540114137 -11.9809749104 128.107760832
-24.4404128525 14.3686523373 -33.6871860622 -21.4024577703
12.5275757204 9.63684400251 27.8114643803 25.8037020459
17.6837686879 -76.9665621001 73.4488361139 -91.520962154
86.8530102932 -102.126207429 88.4302567919 -165.983071278
-54.6823147782 273.288488213 -105.412132636 -131.330195486
15.1179653743 -56.0542740451 -36.6175564582 373.369592124
14.5513881038 -85.6921534848 -49.0232821322 114.978867818
-112.148495339 -23.1230859589 72.981389015 -60.3584669894
139.486286268 17.8580386449 -15.1724739771 57.2957347352
-112.673565604 -30.4755986889 16.9047467534 -294.892548187
121.330455093 -6.41807240601 -39.1950225888 -25.3269329681
13.828806478 47.0579439907 -22.855191579 278.044244775
32.5237643844 -82.8452837149 20.4041679762 -47.5812527938
-41.0891999505 -17.7909332303 -11.844701472 -205.78628816
7.70857632576 -90.7563018154 2.79218684868 -292.079905447
67.0190238537 178.751619953 8.79940582434 114.529973505
67.5865873513 116.558415787 39.5475738116 -419.581892039
-140.795565395 -105.727139558 -45.6599660566 282.032833937
32.6601294703 -19.0948776408 51.600656052 -134.953637189
102.972870796 39.4085604046 36.5408656616 -97.7412815367
-28.2582084232 -6.14392220678 -73.9997743711 664.42704982
11.8090367393 -74.1953976631 -140.598329711 263.825418133
28.0032856925 55.0183973393 195.133475605 146.558401729
-3.94038738816 85.4962188036 145.564398548 100.935457806
73.0662245621 135.358948717 5.27483958263 -3.46817828582
-87.30575394 -97.6476303885 -60.4700233992 -192.58097983
-215.780866992 -107.924349072 -42.8645134255 -183.002291928
-56.0571664131 46.2844588796 -3.39737075697 -110.641959909
-52.1729208996 -78.0597900882 4.52711383561 -18.2925532369
-22.9337205103 -80.0629018302 -21.7585562311 -234.473188156
-91.4834361 63.2633270285 -77.0345815747 296.516979631
-54.7714491785 -15.4722473276 -44.2024123881 -236.710786455
148.787285161 99.4849827786 67.9081422071 225.036574661
-55.9847654208 -48.7578859706 17.2691796219 -42.1924978321
105.696504924 -4.44823751083 80.1288519543 176.851952954
-257.111609258 104.565226923 -197.294000516 -12.3507910519
-79.794434457 -25.2346692448 84.4798433353 -124.305507381
218.013991638 1.3948034938 53.9690026993 -657.255962837
99.7388666297 29.9047359053 20.2143768033 709.517438182
-20.766997331 -81.8327841249 -93.1163312218 228.351571221
-13.2469307279 -24.623804209 -46.3515967392 -48.6793835612
115.514920003 35.8980917357 91.2509463273 39.9169678072
-24.434983256 -97.498808326 -17.2989213175 -230.577011572
80.7913044247 12.7149241892 43.0029302875 -220.337224562
54.9832508764 -1.22146837624 4.97944521324 -63.8175768848
121.606697284 92.1094787371 56.8341114806 39.9437519151
-55.4670085935 -48.1136835717 -95.5061555762 -49.3051339231
-63.7558552806 -279.946619185 -126.188308331 -50.7409788708
16.3280958686 133.172293762 197.676953831 -31.1920814055
-43.4132661585 204.599156001 -39.6322754563 -312.717441919
-31.0575589168 -18.0133622015 -10.1099253171 127.163777444
6.67644063597 21.5789484213 18.9583853008 279.125477162
36.440162637 -8.0754665833 26.7214876753 -66.1783321176
1.87222790744 2.5580631131 -20.154103733 86.9283666997
65.2900558048 60.2818186773 50.0425594071 -183.604955332
89.2445571808 51.759129621 -32.9829854145 80.6111702047
-102.068297948 -93.8756095354 -13.2559898705 244.898412253
94.6641954773 14.2738652901 -72.5448967579 215.736780347
-66.5221871863 -178.81566561 -54.1671412339 111.569952168
-101.20594757 -88.5705785699 -14.2863338198 -42.9744245551
14.0880481295 91.6190353269 46.1193094262 -56.917677161
-15.5227736259 75.1629320339 0.865954226896 -297.761927303
44.7115353304 -245.38462161 38.6581219211 136.238608234
4.9113248288 116.361405242 51.6762647966 -249.191834448
-52.2577141626 164.62892623 -42.7743685818 -163.335579594
-93.3319830319 36.7319840923 -44.2508668109 164.813450962
72.2359045351 15.2085634956 9.14834360032 62.9979228975
130.65799529 -13.8739842355 104.385328781 154.721248401
-30.9453794181 -5.20132239587 4.51870404428 80.0221118686
73.5523867692 40.9030567624 0.874548555918 -29.7027116348
-72.5056998564 46.8983235517 -15.0433311906 254.325967623
-41.9849374693 -188.266737379 20.2296249854 -269.861195788
66.5041027326 -13.872894933 -55.036574758 4.13935349352
165.621644684 141.887524986 90.136611319 -215.153448603
-92.7078845529 -8.5877288523 -22.844086164 254.962814397
-132.422294899 -69.9898637251 -67.6160230834 122.319356564
-60.6838660252 -75.3356440905 -86.2865368726 -280.454879924
-35.0049920731 64.2314288214 -20.4817886036 -13.0006402626
9.72845018679 95.5198106401 40.2747966127 -97.2253974555
-41.2093801702 0.776607260204 -26.9694570117 160.025415672
-175.582781243 -31.132665822 -79.8257038222 72.4565610813
116.793980179 -104.983257241 31.6954782314 -401.550951188
24.7430879969 36.4204848819 11.4118296722 401.102972148
160.327090448 11.6725451831 91.322402741 -31.4011243103
-9.01497137807 11.5094849993 -9.87477063707 -43.2981599088
14.979661721 74.9531836427 16.6505866246 321.17216809
-0.0946087475291 40.0689544821 34.3001124311 -163.317543119
-9.45572613831 -17.0314372864 15.6669301425 -0.9922727351
-63.3143448785 -75.9727890008 -28.7221225741 -421.243321313
18.416379465 -94.13870892 70.619789063 -148.794818037
-3.46651113301 -59.2541376922 -110.35959226 272.505289959
-107.027111091 45.7853797109 -208.068269245 -506.252209335
2.02091599142 -67.9639642595 283.349621021 645.132838155
64.8433537976 63.413626387 5.82039174474 171.218850162
-0.119362244981 166.754176239 -28.0698853185 68.6068696439
15.6070127287 46.5177021382 21.0877196619 -26.7176998894
63.3915982143 -24.8382050148 40.7425864136 -32.2965336712
-42.2895672158 -55.2362988132 -42.6004639989 -141.384997932
33.424517449 -45.0659533197 73.124452302 32.5055077671
-38.04951005 -20.0865839405 -46.3037325966 -149.370157935
-40.2731620831 -70.5689113849 -25.7215482846 15.6630384514
-0.602557795066 -46.9909884067 -21.2340119088 78.9689397642
41.6261497171 -109.283085706 19.2757741368 -160.398799474
111.970678564 79.4890435874 9.50808704495 51.2234373015
-16.0233090511 369.042742186 -79.3796755083 148.831090404
-33.3446429917 -14.3276289004 -2.01045801468 -70.6668919777
-6.97736467018 -82.9735471178 22.4450653581 148.926501108
-25.7735732 -19.5848568909 1.34843746816 -13.2436949403
-42.2382163361 -56.8494598267 -6.73886627289 -269.356360689
-30.5907676515 -38.2365352912 -22.6798714705 -96.8397062454
-15.6472112889 -32.8992514342 7.35151880133 -144.440890179
-65.5885898516 -72.6478976015 -39.6141191501 -341.599986941
116.935870129 86.3946674368 88.2526006596 581.712347723
52.8440115035 69.043149446 11.9652060241 87.1484672307
-1.21900884151 -65.839980687 24.0141547138 -45.7112750591
90.819810721 40.6402136612 13.8344516715 225.182591825
-9.57638011176 52.6812982983 -5.92759025542 -92.8865737215
-96.5295294256 11.8853386372 -46.1824064792 131.382875168
-54.8945950079 -11.0217397822 -21.8569849767 7.53339901085
36.0770374384 -20.9751874133 -5.19856822406 -44.1218577525
-92.4295444695 -105.02297392 -13.3614247048 320.74271297
-34.6927610655 -90.3178445013 -9.39066039881 -545.023659645
-61.5302401912 -62.2740063208 -21.7292727111 -212.463800828
-96.4000937258 35.2248801769 -15.4009918708 100.985180773
334.834840881 86.2862759546 5.30990256195 31.1710394009
13.4075132428 173.353924401 -39.3827847955 213.34268052
-160.329793133 5.89128821025 62.5374301905 -88.4405535686
-50.0433358096 -77.1472787705 28.5418385069 -281.593377242
-15.275164803 -49.6385790307 -5.7126995638 173.571039125
134.289925122 -21.3622879904 22.7903463427 148.69731089
20.8657876465 82.3831407593 -44.056503777 158.054561637
56.6830349427 -202.196306347 189.431243041 283.452821972
-53.460145162 8.73570558784 -44.7930787934 -167.077310621
161.530937259 341.486307629 -39.7055755736 -24.0178967868
-256.141268663 -43.8388127364 -84.3651515757 128.498273837
-51.5063121634 -39.858092013 -89.6297961177 201.884945952
-35.1970635342 -73.6092559261 -14.5096785654 -338.056216064
59.8487737567 -32.428317352 24.051721088 -90.3475181444
58.777987342 101.443319096 34.3964831696 -3.27183791642
-2.67683135938 6.74720875744 79.1908288055 -249.65619233
40.3046847257 22.1439103987 16.1896222163 -70.7365839224
26.9340407683 2.5324574399 -41.5413945094 -245.461186564
92.7899828081 -63.0462277413 70.0620294925 154.553160978
-42.0499425796 -53.6661283374 -38.6015439164 273.538579527
40.4027665348 0.646505769012 10.1114483017 -230.08323932
-6.76191401035 31.4366327579 2.08983584306 -480.512522416
-56.5639631566 33.6174877621 -70.1849333658 887.758739583
20.5081979135 40.7100448526 83.9672540701 275.18135201
-30.9338361003 -49.6377647638 0.537460881549 -253.621889715
57.9705255061 10.532746212 -7.65839510475 15.8613963773
-97.824652214 -127.446448889 -93.6745916096 -146.637144685
105.035239841 -127.264742492 12.8177047278 -140.361881259
28.302569037 42.4925657597 12.1745919192 260.549811961
-13.0798239011 101.267636479 1.37697220392 -262.535109795
-9.98383889274 30.7374639374 -1.17394081788 -264.95027568
-74.6172195228 70.1356318354 -14.9184460796 -85.3362334431
35.3175527393 47.4649256332 -21.7198686486 102.927406726
-1.39408187298 -6.35712414406 19.1676309084 111.448038854
28.979569736 -19.0101939044 23.016476507 120.538583067
49.7174195372 -43.876398072 33.1306304433 65.8519522135
-65.3981640352 -163.119533103 -55.2942754825 -16.7203371995
-82.3369261185 -3.14396478887 -12.1906119966 -200.415930295
-24.382274717 97.9979115456 45.7381405938 247.208320371
50.0293153997 99.7623663642 66.3278275468 -197.88592937
-2.61509795757 61.2983076632 15.6754154969 -124.639282762
54.2205645555 -34.7827573289 30.158334004 138.891777983
-4.48886680594 -20.6323281565 66.2771303034 120.523140395
-163.546215953 66.3970556355 -89.2746647706 83.9142639104
88.0641449275 -41.3095805114 -212.369753145 34.7936935838
-53.2457378652 -120.841265365 225.543208742 -255.196201045
-56.5450486563 -47.0758871389 -13.4621292605 173.499213619
-80.0192023557 -9.70910484822 -62.3896321391 206.613429644
-67.6820647926 -81.0069871623 -25.8514476771 -13.7144492676
33.9411856714 -26.9818303505 48.4431172113 59.6672279687
38.0716280073 -44.7945247909 20.7583670726 -164.601100676
72.253907699 150.143555469 13.8533911084 -230.930605382
-95.8597886381 31.3012877634 -52.3331877988 260.826174048
228.798463181 163.02411599 6.62721993178 51.7900462206
39.2340882875 -180.033782894 -43.5816198515 -659.746652586
-180.556481113 -47.3687345001 -81.3797500006 831.883497535
30.5345820925 -11.0636745423 -15.3528476057 -429.291008869
33.666058415 90.707355988 13.9557365959 2.52115567362
-5.66733152806 35.7097236376 36.4339476888 83.6776390732
40.1890711331 58.4902012979 92.2809907574 320.164853702
36.037889411 56.0722739102 12.451709664 -21.6746276961
90.9583006947 77.1903493079 67.9112487318 172.905469046
74.1807152873 33.5479823548 32.0907643664 92.5275372545
-64.5658817069 -114.583699175 -57.9978920418 -231.318064833
22.5344475369 -108.665550396 -15.5835966563 -249.928178074
120.234363383 29.3366164164 -49.9788987235 -55.7104365001
-184.224943623 33.845606022 -46.2236105432 -276.287133432
41.6498435907 15.4072164701 -2.31284145704 -78.7635038566
16.5101675453 14.960346963 40.1591067579 -6.1525822482
-73.2595014961 -110.116822169 -17.8791782555 319.335092733
19.9219210064 36.9358082205 11.0704178413 103.03558883
-53.7829557482 46.4714327425 -59.0025671221 -59.2160352422
53.0977795669 11.8978981045 71.0715099137 -189.518963475
-48.4042464017 -55.8915025963 -27.8745291044 -31.270931683
-68.9500095387 -79.7649896932 -30.6594041928 -5.38547667053
204.291194346 36.0803050146 140.987653655 175.796570216
-23.6667045709 27.5827231173 40.7263617879 -89.9478954821
-22.1615213765 -83.4810800483 -8.19220056605 293.738476447
-254.098440714 2.13992184252 -128.384420097 373.038439191
112.129655541 -81.8821777781 15.4364861535 -294.324227646
-114.894222244 121.287149985 -104.352492157 -256.930824234
91.4707902088 44.5662608461 -90.8873400827 -85.3023420164
23.5497415607 -157.600597305 121.840995611 89.1059383181
-64.9478960216 1.8117867144 94.2769177473 -163.529164912
28.9214977886 153.446007145 -76.1272564082 218.426816146
75.9177445573 101.691896362 40.9261882431 -106.723504268
47.7397030476 -83.7223883437 23.0222011036 -279.222965616
47.4904060617 -72.1241219858 -6.06286240792 204.803716978
23.8625294016 103.134075763 77.5419821426 -383.514622509
-39.6598766473 181.524801426 -81.9863195581 277.018822189
-30.8714048804 -61.9052801913 -25.483057853 357.929953819
-36.1149552952 -85.9767099684 13.3177473207 -10.2502541581
-43.6287412486 42.4640426015 -14.6179297237 292.17877353
-30.5202416435 -311.386271315 -37.2832382796 -157.151014819
103.310004749 156.503814009 44.3596740324 -56.0702302246
61.8714215587 227.250007503 -9.10824745598 46.7405183536
44.3519678638 -38.3652127231 42.6153863633 279.0561657
234.128723166 138.704119109 115.887968103 8.5859997034
-193.348825205 -183.823951295 -95.888857974 -396.959625588
-234.582244763 -180.397631375 -63.1008768015 -381.198107276
-123.313453251 -47.3217657065 -59.9837478314 211.603527333
-6.69064754074 56.2982375905 -7.31827753072 -52.5403590429
-22.0094157281 -4.18438768542 -21.3440457387 -266.612146967
7.84378778555 1.31980175403 14.0144451168 -323.175343042
-7.11608251564 -63.0908675035 58.6916190363 304.136106147
27.7632596245 -47.1060054832 26.2956148604 -63.3292277274
88.1017646353 -1.63730129857 25.1902108448 -38.2567078126
119.453751822 -3.54692164331 75.6750655689 -10.8207896885
-120.54639785 121.898372941 -82.2200140887 341.758969295
-9.50707463159 38.3620740633 -51.6785044997 78.5638180056
151.451474113 64.7797758942 22.8767279815 -84.3104754714
-13.9740317248 -143.961184511 -6.45172444287 272.088418155
-23.5188674118 -54.6535135659 -1.22776620954 196.583231801
-70.6204906736 85.4863260718 -12.4636091682 17.0216761292
73.0984849036 -177.618989882 11.1086139295 -140.502722148
47.6450956878 57.6140854923 5.08917832663 -304.500803304
125.872743281 302.270099686 99.5228018135 59.0252303682
36.6220824881 30.526556748 15.2284644911 185.202788947
-5.19381701123 148.627940411 -36.3440913406 52.749847924
-55.0187111784 -153.639162135 49.8608697344 -149.351585104
-31.2598307266 -9.24337149987 -42.869793174 -33.2578297037
-126.79368435 3.2743617348 -60.0324320207 200.644925536
-55.7195945294 -62.7084566874 -25.6442605099 -4.85015817931
2.351629682 -29.9454569423 -11.4513950935 -198.863563121
74.1931730476 26.7347959268 13.7848829865 6.19019422884
110.668220844 -55.3823123117 78.624477793 -49.2877377165
12.6549187524 94.1155978761 -34.1641035063 -201.550546026
0.565472141238 -48.4695772909 -167.364764271 -189.583797718
-100.904735256 -87.8313029937 239.053937975 126.329671158
-30.2882172385 1.11250457268 7.0807947583 -143.976286576
-63.0010892932 -88.2287998779 -40.5078860608 784.601754106
-3.9642636373 -34.7849866901 39.5213250944 406.77719815
-13.0135866073 60.3312873535 17.9812244241 -597.163225667
-66.7885561354 36.1996599173 -129.208823272 90.6588604797
60.2533232649 80.3844298717 2.04319050028 -108.259070107
5.10518348484 -19.08397838 -3.65847268534 -148.510619261
13.6699575443 -47.5299163385 -57.1714123968 124.818790408
-149.305767843 -25.223751323 3.89482668893 -52.3108320101
80.3850591637 -73.4482776049 25.2800200189 148.645937892
-13.390242696 -42.3530571779 -26.0850029323 375.841042249
109.234088289 237.689171002 71.7458203866 -655.807848116
-30.2068140976 51.8439296144 3.48824411702 115.933906003
14.2945244851 -27.9546826251 84.7212153088 -152.954260767
16.793835118 -50.355507773 14.4654070585 -97.9352962438
25.637276051 55.7744612953 -34.7702551376 -20.5348219456
65.1577180771 49.3501767737 32.0247156673 91.1466564946
-10.8810189042 70.9783228603 -8.85706048178 19.5386348275
12.4621333488 -90.8014375785 -51.9913920275 -121.415063887
-136.118195779 -105.375349715 -93.3485018264 148.109626256
-55.2663539779 -254.431526592 -42.7659995546 5.59628681616
53.7420058089 24.7093027153 56.5037492109 -27.5516571039
6.24214619493 131.607998438 -20.4612328948 -36.5430152866
97.2459318108 58.4055389606 17.4312374658 153.769575072
-69.1271118419 90.9443739369 -49.6433547565 39.8410786322
217.440620655 62.125543853 126.734960202 43.6859386199
-25.4990184816 -14.6736712964 6.99117497114 -61.5589884088
-114.392819031 -145.885321297 -53.9860309011 -64.3464211886
88.7423142537 -96.3013357433 21.753868253 22.1999264937
-294.838039831 83.2046187756 -113.461513997 -39.3724199746
51.81606262 10.4633031879 52.7664443291 83.7408260858
-3.50724595665 -45.3995396671 -10.3140445399 -144.11953808
-7.75867832625 -10.0089688593 -38.4751802376 -5.83296031405
58.4216101276 61.4818940242 -5.23317724753 473.996380093
27.3649500899 38.2481644369 22.953296643 -346.954042936
32.9391557137 -79.0027615985 85.9472140014 -218.72391322
111.94830122 87.550735615 55.992460602 581.508393892
-166.742258177 -26.1765814929 -127.905829765 180.460416286
84.4352270698 37.3189905587 86.8854250172 -0.984005405973
55.52576819 -39.5365176296 106.276261221 -141.574169916
-26.0825797296 -0.113850855813 -49.1828056336 -38.1997564324
-66.2773350541 34.3180805509 -73.4445770535 -400.084897874
-32.6685972368 39.4063530987 -0.318592457511 -131.968153183
-35.8274858221 -17.0186425989 -16.6007263346 -32.1018943558
-13.5437151652 -20.3208594129 10.716168426 32.0768233063
10.8961333099 -49.2561211603 35.294661542 -28.7974808471
58.0558298471 -14.8752711384 21.6302914382 231.847994921
21.4269876119 37.9995044073 -12.3117620294 172.946106369
0.565189542911 -16.6262864566 -10.3999031143 -328.471004129
35.7465923332 -192.443510021 34.8410593546 -323.375745542
-79.860811099 -162.180723747 -31.6941519635 473.031073391
-30.5090523736 265.326207447 -84.8823503262 262.08424685
-4.5145125854 125.717075283 41.0527574956 -248.024603994
-12.7321679271 -44.9946550387 12.5860982104 -224.392960365
-46.0683905512 -42.502079698 -18.0993897831 -36.770299549
59.7992758475 11.0970778674 11.526293111 84.6881990805
18.7478434411 35.2443062168 -1.10092196506 154.565224429
40.2935462228 15.6375835207 -36.3752868811 73.8488672376
58.2738719268 -70.3002507237 13.9574963242 -88.6761513934
97.0021847919 -41.101744617 51.3177238878 -109.398195123
-23.2604367457 134.291629553 -104.569721118 -57.8375403674
57.341245442 210.004038457 150.696216654 445.689410895
-82.2990494752 -77.8342005648 -65.4626211894 16.3532567972
-3.97695653174 -3.87541784353 -22.8856939145 -87.4202712996
-5.80439604196 53.8995983964 -12.3733553992 7.94598195568
-57.431669408 3.49804774562 -49.8595952971 56.6349417901
32.0105619516 -26.2015100157 -15.7551689973 -211.970574098
-6.71793562079 1.70298285111 56.3773236376 -173.05915806
84.4791864536 -81.837890706 34.0024158526 -86.8155000517
-155.787839083 -176.349762876 -7.50278088998 -253.472310963
33.1795479954 -94.2574836485 5.69263347782 -542.817553732
-32.017370595 -57.9070244289 -15.5434402434 651.150794298
5.98672910038 160.811677763 4.57363376938 327.827747129
-21.5178577883 59.4110199703 -20.4585601119 47.313216808
-60.1837423659 -155.689517105 51.0260291937 105.984204644
-11.7249050516 68.5178377182 71.8995543506 16.7905619271
42.9615278636 201.250010433 -15.7774405485 170.677757565
38.4628372917 -80.335452764 3.62142278409 -28.1866292007
-15.4162227817 -55.874305611 27.7141867778 -114.190978482
68.1970101399 4.12834010056 -24.5269473862 38.6764388644
4.00766356998 11.9034143327 -32.2759222481 41.7094195428
-45.4168344827 20.8895649611 -57.7489152729 -398.511009879
30.3637771037 2.86475717614 -21.9224795539 -26.6814856478
-101.328783539 52.4554409113 43.2765501737 -259.758084265
144.451127012 17.1188561521 -6.98855581302 508.895575763
-81.0755403323 -62.41531249 -20.3593997154 -53.4563668626
-47.8189130979 -106.162469861 -14.8614796405 39.7946796481
-51.4362053436 -92.2925106681 -9.94520667048 18.5443271902
36.2227700662 95.5526771727 27.8352598811 -197.631457198
45.6612082344 -9.50856985993 -39.1828768218 -1.98134899043
67.5549451922 153.375267105 -124.030437981 68.2616268156
-20.1084244958 132.175291743 266.306402746 -76.4429389345
-18.3773706841 -51.0886677266 -9.4155000502 8.93186990259
63.01504565 -19.7470503488 8.79020667659 -27.4879979612
-48.7041369712 -99.7300235979 -75.9196514378 123.825180248
-108.375838747 -53.9496942971 -5.01557468951 -217.980445858
65.7101007402 83.5547096035 18.9359940854 74.2577330203
67.6409715207 96.0862121374 -0.0244062232031 244.150165782
6.96532379794 -40.8918863364 -59.5245526571 9.60492573814
23.0748506733 -37.9628139548 41.2958848963 -145.060391441
-99.8021910522 -105.184383142 0.787967391463 355.371874653
-68.8325131235 -270.851757568 -51.7190091892 -45.9736175423
-84.0049999939 37.7207028543 -53.0594125502 -42.2338575384
-49.2600120991 -108.624647863 36.1828246914 -75.9679386131
10.3258267181 119.951156845 -29.0317071091 -163.120887224
86.8648854903 361.094953815 38.6432842128 117.082775572
143.388999843 -6.48132566474 33.809817879 48.2134596434
24.3376279314 -79.2249101106 -20.5381454558 -159.349434825
52.2031726526 33.6844466807 -5.71597140749 -62.604795278
26.5088697355 77.6261871719 -28.4418676217 -27.1024959406
188.178374326 1.6960851495 -8.35721334335 -75.4158722954
-8.1000267206 57.807665861 -86.021620549 105.921178576
-115.121285694 -28.9652742525 259.767641579 -63.8882109163
-193.809857555 -133.63323122 -38.0936723171 -279.32200134
-40.83551073 -73.8727199479 -9.50910928088 -103.934447096
39.4372024921 16.7552815755 79.6495543205 121.430905798
-12.7294842242 10.6116325814 -7.49086542637 118.773107826
26.198233673 21.7291151901 -16.2703471158 365.646300622
-94.1787181998 -75.5584286797 -62.0089590505 231.067033793
107.755687705 94.2733354663 -9.47724301773 -98.5212379094
0.306242577356 9.61166109888 10.3730631005 16.1746442703
-48.3078494718 -25.7517443966 -66.1346442415 -339.293402409
128.196230485 36.2127451477 44.9847422565 354.955731667
2.55481552965 -92.7246620652 -52.9671476201 -42.9569085279
187.868198699 74.9901492731 117.924203647 200.132968262
-32.850790331 36.8391178858 39.7667822297 23.4586785658
-126.01320127 12.1714941181 -73.063781966 -326.707653279
-37.9424203464 -83.8081558262 -72.0535322106 -332.868633573
-116.488219017 -70.4330305436 -24.0301693487 24.7197365725
7.06019536085 68.2820640304 -7.40229568772 -115.130664331
-22.1744354952 -31.8605205341 -1.86741738867 -114.348648212
18.4676058516 9.79305211071 10.1140357698 312.618979259
-102.592474915 -114.744494423 -7.95230233425 33.1613734529
92.80557525 -73.8552580314 -13.8079854946 -9.18919014304
-113.218682112 172.093617545 -17.4204263344 106.154156619
79.8656263 258.911002094 132.496705849 132.776680403
123.356593703 -152.557500765 66.8016933281 83.1252575425
107.930867892 47.48013543 9.66926703001 -59.1726534837
25.2819795233 161.183518623 -81.4481800464 -62.1010846602
27.7924688267 33.3389425631 -51.5553830918 -104.823828837
-113.314334303 -131.485360993 -65.0445345223 -1.99159626169
-202.768220302 -145.259925456 -12.5685812846 72.8571937296
-87.7714846039 -45.1380980547 9.77686902177 -78.4341343993
109.702330309 -17.9816230778 53.1285419272 66.9327682583
3.72322094788 13.7326836204 10.5509371318 -38.0057685486
11.8277157398 -74.6612069162 33.6127287075 33.7235270806
4.78204573491 32.2298927453 -6.47621108173 -88.1039742582
6.40930370012 25.2209484372 -39.540732654 53.4715600069
85.0220802462 9.73079588724 -36.4947945136 -241.130105351
48.6051685979 -70.7874916749 56.9277106528 232.283948247
86.6907834486 176.305160859 -9.603343229 -228.843021639
118.760297855 53.1175505657 3.17400110026 -72.8265099259
-83.7762354885 -31.1073385569 3.82482256707 475.375941594
-122.439461619 -57.2087820879 -9.86221575985 213.853803676
-44.6501572456 -101.206386576 22.3257918494 -73.1819103252
-193.856652382 -84.8940499748 -88.5387908483 -249.426951299
87.2052717706 1.57300546317 80.8189384241 -429.572743131
75.5057178333 71.9897868354 -52.2392239533 -73.4122859269
45.0290348927 145.57797404 -82.1365362048 -211.842608152
-60.6040840144 -137.130466495 256.088876644 21.5738072406
64.1657566597 12.7591342121 25.9156122662 852.49606804
7.7180666575 77.2855230533 -52.999065022 -218.327970575
-103.956166586 40.0410479873 -31.4311942517 272.569395336
-28.3075827821 -3.48807446342 -54.3206406002 -155.510293749
14.9876232376 56.0802216158 41.7609083882 83.5172353665
47.3919213441 -38.3667175014 -48.9841513945 188.158163512
-22.1034026992 -190.86038246 8.69992464951 -281.213562247
-46.0993483975 73.128095662 -44.9940567588 -100.612720575
122.190747696 200.834855491 70.1142211108 78.0785038412
22.9884599688 -146.765759963 36.8775811001 -94.7189009802
-29.8800708396 -30.0412517703 -20.2163547044 -75.6889426717
-105.154800512 -49.0551196962 -64.2225808573 247.583959777
51.5671469826 91.9150296131 24.6426380791 17.9045376454
70.7257272057 88.4915361297 67.243938193 -156.897387951
-15.4284443572 -50.7500660864 36.3456744352 91.5140227086
-105.427613725 -64.4459636709 -113.545439657 20.4209650526
-88.5737957911 -28.3058917435 -60.8188262603 -104.228984933
-25.2631058408 -94.6928404755 -48.3425807414 -83.0123682604
-140.862691996 -45.6175730375 -34.0802258963 -69.3162519433
27.6351503613 -2.3588012432 1.87613659552 -147.316580827
175.893303345 20.0118404961 97.5015393641 -32.2227819317
38.2775324841 64.9238567621 -16.8429592411 -17.3754624163
138.40280058 96.7602519042 5.57567514428 -116.69535079
-140.970835441 12.3451516522 -5.95496118126 395.50207038
204.920687536 43.6530060636 108.878172411 426.298508739
26.1857551874 -33.9757796901 -4.63679648118 -92.9347383782
-17.2202095367 -142.097360944 -17.6165026238 -130.151460668
-28.3055840181 28.2952459523 -0.295997634182 -6.21340570799
15.2473932261 223.111151697 31.3628435588 138.516651605
-8.70416508712 -478.989559778 31.4956419354 126.354903922
-26.7529288857 185.293879519 -103.258245918 -122.487225812
-9.76497248918 512.050822046 -190.605913128 -132.523417807
50.4012466055 28.8287673426 382.325732025 -468.401506571
76.5616395678 -110.871579666 -14.2200851698 -60.1797999265
10.1438179401 -34.119740983 -49.5977176519 299.003620143
-60.9207041395 21.7091778401 -42.8665743693 -161.879653924
-54.4568830244 7.47402756763 -11.816949775 -94.5949096004
0.385000172242 -27.0357464241 16.5955128541 631.183774538
-85.1074410951 -83.7638562234 -23.9220467559 -123.514823401
32.3423691397 -117.755891377 -42.7173145176 -76.7142545017
43.0070043702 -33.6636980913 -9.43408777353 -100.039303763
-65.4242462149 -124.981645086 -68.452571237 -55.7221657724
-117.755166726 -75.9277753604 -7.99896318492 47.4179692692
-40.3281257397 7.45978963318 -19.4650926373 -24.7639387612
31.541281556 97.9587025779 37.8299923985 -100.718551505
0.585708245116 -43.3197622121 7.72623614088 62.6052625192
-106.732670139 -55.3380920012 -9.43522289702 65.4994329251
-85.8729259221 21.9840598078 11.734345721 229.049201405
165.602941454 39.0596084518 20.7793437415 -378.549704002
14.9531406611 94.4690066365 -32.0979962714 3.976542939
194.098235489 82.2386291099 146.303021712 272.588925014
-20.5262726713 1.94569999156 -65.5593869126 -12.0998443404
-46.9757658905 84.5251936801 -52.638518349 -100.335413276
-19.9656288824 10.0462712451 -17.8311181938 -303.910600783
0.775484263863 24.6727284657 26.727445054 -215.304854142
27.0009891131 -88.5700625361 -21.0291382394 493.03841898
6.58569954229 -46.3205254014 -15.1657229116 61.5898801174
-12.2805864261 -63.4416212819 28.4646648217 45.680058631
7.10687055045 -0.270215683828 5.17998222408 -163.001724089
10.7604061684 56.5646543149 50.5536686561 130.780522103
-3.14887399114 10.5304885629 23.7517567201 76.6981792503
-71.8430679742 -176.683990887 -24.397929232 -312.927498558
146.58659125 -21.873245471 80.5831666118 295.001902472
-13.2317798283 230.025397759 8.0511948509 52.6970505934
-5.89188083823 91.491087254 -47.5129569954 -285.676568817
-30.8033259939 -70.7806347227 -41.9946625046 -137.697932844
-7.87395812095 -46.7443718226 -25.2916594912 -240.200822483
-22.0296469595 34.6238396388 -13.1522165566 125.069594367
4.96660581206 67.6604221744 -1.25513856574 342.210291983
69.783742904 -7.71911536835 85.0125813595 279.695256681
42.1905736985 -9.30778759013 -44.2644577417 -63.9516424349
21.7370117008 -62.7112299733 65.6052735952 -264.162991884
-42.9341866414 -180.13498961 -80.9588415609 -460.560467743
-56.9946469919 -78.5298372566 -140.730142058 532.283803087
-227.468202379 -145.157040366 -55.5970223935 333.401195394
94.4424397327 113.850531826 138.875333457 -75.4779702849
-149.737290437 170.025534201 17.4295727634 -70.323977517
93.9713549224 30.7880640777 -10.1529574135 -120.315092413
101.404978613 0.906665491353 54.3748361621 105.156355157
-8.21639794606 -4.10023406564 2.92160034901 -224.60936676
1.16193326205 -45.5913082158 32.4903483422 -84.8518694585
21.4676790982 -5.15066895745 -13.3759446027 -9.43658817891
43.5794538828 90.8565908289 -2.18785360288 -70.3961165188
15.3618977152 36.0054030104 -39.3578953907 42.3920791811
-22.5872402537 26.3925658775 1.13145447683 130.306913986
59.2274052358 -26.0777599416 60.1128406644 57.9990725094
-42.7216602143 -112.978330349 -30.2344918241 -43.7679781907
-86.5253972314 25.5873176225 -27.9390096185 47.0982243939
-69.5484751882 -141.303100375 -67.0427594372 135.536713326
163.314213681 100.057361338 75.6670278166 -279.961677335
28.9641829085 149.645998235 21.5842063539 134.11779709
82.487505477 33.2137101185 -15.3060136823 -32.0221489926
-3.03269448197 8.77759288382 -31.8988769298 -166.470556435
-73.3333710583 -13.4009691228 -71.8865273372 26.7663780594
-16.7527326647 8.51862727502 9.66145677161 -55.1150752686
42.5960526608 -10.9877939129 46.5960977047 -43.0787452129
-45.1374537937 30.3629370791 -3.49036847492 79.5436245148
43.2346549821 -75.0371296029 86.2860699139 367.908492386
51.6071712272 -56.415578602 -19.337031936 -73.1887312935
-376.618183124 -14.5416436344 -57.4594129475 -341.922525918
65.2618644268 -62.4369024109 6.41643786256 -38.9875455361
11.0204467876 -1.97713232656 36.4178935764 -225.907409936
-17.8347703624 -36.6842941411 -27.4770515357 447.803344273
28.5753440664 40.5500306391 16.2986215006 47.1024093345
22.1996392889 -33.7816641271 23.769489265 184.960872135
155.066526345 25.6512453966 45.4805169371 -136.203539185
118.417793049 -26.3756035666 48.8267778901 -264.588071994
-76.8512428997 191.158245852 -87.2413688658 224.246357645
-12.2565689184 -13.8044311007 -28.1653459693 209.445858685
-5.15730371088 45.8141030734 17.5445385656 -182.702825586
-79.7183307647 -55.82292813 -78.2649115447 135.618976928
-68.0850409457 0.96379000891 -54.3583000786 -72.0265144949
-49.1908909294 -12.8923274491 -14.0177332089 56.8180978803
15.7348448022 -18.8453933001 10.3110568347 -46.8737190364
43.3900287025 3.22060418217 20.2689144043 -180.234319096
110.65045114 -19.3688549527 51.9952581713 234.339177847
116.962826592 -223.261158328 67.3168491541 -72.7500301342
-23.826287277 210.929676036 -139.373755691 -189.871558139
174.05310252 273.186385341 289.994669302 12.9316160052
-131.861239836 -110.125439721 -28.0043332821 23.275700783
-130.599085738 -89.9410961282 -75.0965006108 -228.226639804
-17.0114813349 2.75732395825 11.9300498295 -2.13309357476
-69.2246587429 -105.184322911 -35.4729699416 -106.070634555
105.326294016 118.659138079 3.90178240839 -154.916489917
51.0512967576 80.1986100945 16.9081966633 552.765443351
23.1911684444 -60.3496572797 -18.3333233582 -169.155048548
-67.8030755604 -27.8727443337 -73.5140307444 230.036543445
-131.104047175 -82.5696900926 -57.5477302373 156.516408031
7.93320497236 -6.14316117339 14.698685841 -205.646145113
-34.4401179885 -262.069098079 -29.950748385 3.12737110969
1.87899772743 77.6738246693 49.9854636988 211.368233623
23.6822264203 179.111522663 31.0814839726 -140.423577048
118.892238505 -93.3623679131 80.4194092285 135.833363742
-16.3539110223 24.7066682209 -13.3032677026 -24.8849052371
22.0322529646 23.0212334988 3.27177865142 -152.384988514
76.7331456597 75.5852642408 30.7496758616 -117.180230174
-38.4916194373 37.904968326 -70.1864727278 -275.0216003
3.8937410562 50.3856898727 -16.6302144803 411.309665902
-36.279476668 -0.821347879029 2.96054263635 16.5051425695
-21.83748944 -63.9180126253 -10.4631176852 -50.8447263338
22.0576740134 8.16335644893 20.4683292237 -305.924562598
-50.6941248249 -104.682727173 -42.0755113838 -98.4039401577
7.65987087401 -17.9946161047 10.7938396504 98.9909270535
-94.4448538586 -22.3534892269 -47.291335026 150.895616663
-21.7205431371 36.2872214326 -22.9706383501 129.986193461
59.9583402828 89.4508264892 57.332301132 25.7224912081
10.7065082212 30.4954880162 25.727464418 380.885352467
-97.8178437843 -96.3336864331 -6.64388223222 39.5616338217
97.7186549588 -165.420712393 86.1919173332 -124.822376085
-23.0158969842 66.7692332781 -95.1438795486 -168.320826134
-94.5614205256 185.753951915 61.31219702 -419.505910665
-9.11520827242 -32.5888541186 41.8687734162 302.876248574
-2.87575116837 21.3865567418 -38.8225169165 188.918881865
100.598833598 50.7828346778 42.2880705218 -138.147148948
-55.1342769838 -9.85017052494 -134.32887404 -31.5210208897
-1.17467652521 5.88833537645 24.1541154585 -38.948215956
90.1230898053 -61.801894801 5.05850294884 -171.369469705
44.6834991108 -94.7929040678 80.1201412445 77.4141814792
18.8317232174 -40.4666878853 -82.8159004317 37.6132248298
65.1133538899 46.8977341675 -223.522071608 -39.1670528917
-55.0909779594 101.556433536 222.348197269 -111.815189491
-121.214679577 -22.3549240322 -2.56981423605 235.556951407
101.659388369 70.354564184 83.6025467718 -482.510489096
-63.0905106496 -46.1426988458 -36.8119482773 231.312914883
-34.1365982296 -23.7356285826 -13.4099760893 309.672653015
30.8733894105 8.42313858313 43.9628562637 -60.6688785342
64.0514142722 -2.06362229854 20.3881327346 119.8629634
-1.59199786489 -52.1807723699 -33.779012339 -101.431165159
67.923466739 -15.3370443395 26.2529867308 -177.343686275
37.9329980525 25.9786919753 22.0189015759 -136.518348395
-72.6736049748 2.95657618501 -49.351722029 -33.2081393603
-106.658519768 41.8780152432 -27.0856438322 78.4597669342
43.2991780649 12.9745977421 13.2724203502 201.466251215
9.71201316255 -14.3789574553 2.53570280072 433.14868117
6.91725670667 -23.3925205479 -7.53246571278 -36.6297378784
26.8184171673 -46.5819148306 -40.75826019 -268.37112799
-39.620727947 -144.568805752 27.6630454489 -90.7202211919
132.859848588 87.251908935 56.1519870315 121.933490824
-1.73482800093 229.938600017 -43.2239548863 145.941699511
1.47868490486 6.29356725089 -6.47266429911 -164.661800291
-49.612861146 -215.013342567 -79.5554672406 -331.788072037
106.817065906 158.072200698 50.235302713 -179.70888578
-28.8860882535 233.811745279 101.493749798 -134.969748262
-160.198725703 -72.5291308738 -44.7722581749 285.718159706
-125.6648459 -121.183168383 -63.2451284601 48.0224365175
68.3982523213 -18.2004029236 -10.4547030099 -192.667838793
-32.6308729024 -45.0010442151 -31.7847364171 112.867067716
-61.9729243434 -55.2230170899 -5.57760440472 118.562114368
83.2552624052 -46.7142544565 23.6574450599 328.658903652
-7.83666415095 -254.23136594 -27.7225268646 4.19238387037
59.7117360699 44.5601988828 20.4317806946 -19.7908630323
153.951028772 271.466030661 64.2550662645 120.057121506
83.637114572 42.1438569184 78.9127171262 -394.241375944
-173.410220449 -60.9529064456 -77.0721695785 -291.455333601
12.1766992587 6.31190932762 -0.0703700433765 158.891794097
-29.1520193842 47.3371175761 3.7126191153 139.744840364
-53.6911968528 37.8851496287 -2.88417912222 337.241913636
-92.8097979021 -47.4313416929 -26.9706497717 -57.4777142083
30.9538286623 -13.0882654547 0.912062442142 -380.046970253
46.7688031627 -26.1995524025 48.1236691573 98.8909320535
56.0919419496 -17.2995927883 -22.394893747 39.0279972352
-35.3075924955 -54.8391605867 -11.1461883699 -16.9627801027
10.505962112 20.9492443329 -20.4823390426 160.672452127
1.69529569692 -25.5353333127 37.3291553986 -273.963622912
-61.4693057212 -34.7306713877 -12.7442673184 -25.8541651171
-129.243647292 -34.1409676867 -0.509499174292 289.854570579
107.462500969 91.8174921661 -19.2693381508 -240.268768252
-39.6531062189 145.996456233 -55.703598395 314.88220861
55.9281067583 -42.3123330706 -1.29076745713 94.0072331818
30.7254789962 -35.1894011956 -3.3069214794 -384.740627447
-7.4568993955 49.846793968 -12.9711310544 199.315118112
92.6667290374 57.339729148 58.2666414658 -55.4846049146
21.4303190235 50.9791621052 53.8284050344 -188.951272308
-46.3321070626 -7.70533128772 31.8139281728 -157.935352227
-62.0906705234 -80.9841349082 -2.22962455838 405.115193997
-9.48956315243 -95.1781292202 29.1836166294 -186.55864962
6.81613285733 -49.9374739474 -27.1974230497 133.373890785
55.4177202284 25.6320151959 5.19734184444 239.065759133
-48.9534363323 -20.6790167272 -12.5805487204 -130.818226568
107.379126132 10.8823628211 54.3019446839 -148.7727711
48.359221022 46.4934670189 -52.0657499935 -68.5149690149
-63.9734493411 59.7254183841 -66.2829138929 -117.637653845
-147.702026545 -59.4135019025 -83.9676326483 56.5821465192
71.3090361277 -0.932171732122 126.79775641 305.621339654
-41.4629278873 -67.6043017755 -25.9759651903 -71.8512110835
25.8959824917 -66.1312228318 -35.1577210528 -50.3823923948
27.4878640431 110.778460357 -15.0724266948 -220.449258351
17.6060041839 44.9760133527 54.5344764777 528.591921868
77.7866341332 43.3619657713 77.6163748256 -276.981645743
-47.0123009642 -73.6103282841 -105.573974089 -325.809615661
-111.932388494 -303.3631038 -47.3624647417 129.761370669
43.1557871431 -29.8100670208 32.8531373774 -94.2860974507
-86.0181430276 431.006323599 -30.040294136 518.868718344
189.348969763 155.583508141 -43.1723811898 -186.60902954
-70.6903486053 -40.2273978154 31.7960087776 184.168946755
75.5255002653 -4.06315217777 15.9926136333 -65.941784428
-14.7900896325 -43.5078369692 23.1938132628 -704.376795936
-2.06467706645 -2.22296293628 5.50653395561 302.614600832
53.9886470005 -19.3382255666 1.97724809169 -78.0597019536
-31.4741371735 -74.7703229956 -15.415847134 -115.975615005
63.6746730774 -50.5191886329 68.4619197247 126.185312513
39.7173041199 -3.20770264544 23.0844553948 125.946588223
-29.7490017351 -85.572759328 14.5876039292 17.4772946039
-134.85070208 -6.35666624197 -24.4890087808 -208.230390975
12.5679166376 27.0327840947 23.1370070637 423.859874599
-84.5512989363 -10.3474182966 -38.8813964468 106.351144004
26.2414185932 58.9448352125 62.5401884764 64.9630030815
6.4679313623 20.8573165724 9.8628217133 80.3479604235
5.44004014899 -30.980370469 -3.0260085931 -302.356577782
-3.61229384269 -57.8893037525 -16.5542304375 -14.268310225
-18.6162689095 -56.6158852027 -29.1819487844 280.594751714
66.9349619047 65.9566988548 -21.964155261 -208.527463848
8.49878611644 -139.840804628 -94.8649646168 -64.0984916481
-96.6323813138 16.0187375831 4.24944301973 -112.281337439
165.622546462 194.419321417 89.2684722882 -430.271596644
12.7277143851 55.8188784038 5.67524850486 202.336669744
25.0234761826 159.432378387 29.3966589813 -91.6404827762
-61.5258880927 -94.8482432661 69.5227471431 252.163387642
-88.2317275254 -43.8516574765 -42.1571585139 44.8632986379
-130.655829655 -26.747470087 -11.0506058357 91.3090820427
38.1412243119 -100.36416628 -36.118717716 -47.8885714325
-87.0684873221 -4.09583130323 -77.8891899565 -89.4106505927
34.9932982058 94.4846680745 -100.327512725 -143.593880369
9.10081180453 -57.8829484079 -35.462741547 216.285670004
-43.6079727312 -101.787995718 -3.96383263637 -109.434264506
-36.6008128683 51.542871362 16.548703396 -266.491116482
123.371075103 29.988029501 105.597688331 510.738898879
43.6147341115 31.7136880513 48.1843829121 85.9359103461
-0.219755484405 23.8474918482 23.2314553329 3.08714507559
37.2317627905 33.037961285 19.7011211922 -231.672615066
-10.9472095832 -30.382794755 -15.2862921962 509.00206944
6.67915474323 -29.8575728369 22.7385274014 -70.7804291495
19.3192649921 -19.2277361377 11.3784467337 -100.103572207
12.812369695 -47.7201902445 46.2055766262 -81.3257273069
16.6595567184 -25.7917565646 -10.7711999882 -179.306705315
-14.6420783226 76.1761719787 16.17782098 -53.3255184775
-35.0331268116 53.6100468717 -90.2652580877 7.21998582599
-73.8547313962 27.3146024996 -64.5473064388 11.931131857
-1.47194165544 63.9110899693 17.5463275382 -207.077461099
95.8909862507 -7.85387685798 46.6493816083 401.730508372
42.8960320409 -96.3928376778 -18.9001060042 -169.83020149
-58.1090884926 -29.4437991019 -41.5256605233 45.6625073339
17.9184748503 -27.1926079561 -35.0231180265 33.5867059125
113.323422731 131.59720918 99.6191392208 -121.379004286
-45.2102258327 -104.05307235 19.1239413215 -170.398504821
-145.801913494 -163.027595052 -10.8702125241 185.209374532
45.9618840156 64.0391153138 -62.4100304817 -201.949948315
73.9828549854 122.791708905 77.5473207442 -285.784323082
185.599367208 21.5779780106 78.8413830045 403.788315829
1.75765841571 94.8358195776 -121.437172438 243.473088324
-115.455228855 53.3713925341 -15.4627959445 -318.021040959
-99.0107720878 -2.82294092753 -25.1741476343 230.905666451
-95.4142537263 -234.681265284 -44.0336264161 120.312741576
149.049703063 96.1515748309 97.7105350155 59.7028461067
50.323558435 125.286221552 1.41978427947 -107.426065501
13.4950165644 -39.142071121 2.76510200111 38.6912238241
-53.7928327258 -69.7972003902 -20.6987569308 140.022381562
-34.5877966075 -52.9460729965 20.532749243 -147.29437372
-34.6048451504 -49.1265789593 -12.5019759225 -150.42092805
60.5756444909 34.2262925181 63.9398659396 16.1718486963
8.57387773536 25.144761736 24.3579844102 205.992696109
66.8072268671 62.3058507658 39.6913759846 -270.977458423
-84.8766557391 -39.1044887703 -57.3003979486 -147.290564177
-89.8807687815 -110.414354976 -78.3182199996 277.080753071
-35.703862089 -43.1836633966 41.442338758 -7.05669003668
-85.3537768622 -11.1333975465 -59.937137714 -136.92210787
7.24286310539 54.0406383291 -16.1880947226 -39.1919655316
41.8020521102 40.9010593541 -37.1573587898 154.266024317
61.2630026892 52.1614296645 7.89206183483 -17.9724891664
-2.61789832493 -1.47388484745 15.6521264589 106.727790603
36.9799379783 2.48435057789 0.293915942543 -537.922627692
55.4870323094 17.5320472046 52.5564885594 116.660462368
-20.8929141304 -16.2842448986 6.62167038428 51.8943238157
-38.2964074672 -27.4350241627 -12.9870310794 -40.1532602792
36.6631008571 4.23627613974 44.0641918586 -225.747595452
86.2890488844 115.821047266 2.51453287341 83.9337996091
-5.64066910976 -31.2939039982 -19.5758101379 421.717784213
36.8350623573 -51.8757086737 41.1492943139 174.794498807
-72.3278646554 -1.92311188732 -10.1160256206 -15.0554504411
-63.5163530516 -6.3967991569 17.2801531717 -166.276473972
-65.681813409 67.1227186592 -36.2318986816 -80.3375278063
-8.13904383376 -143.347037915 -54.7750743051 15.6258495431
-90.703072917 4.74588850015 -22.8298758995 -9.65489108257
140.300315852 76.6172099751 2.6406793593 -204.034667407
86.2774766411 10.9769019982 61.0996967381 163.936197778
-27.7600897114 74.216520945 41.3860880546 62.0503700993
-290.732172924 -120.481673438 -88.5166333625 -93.912218781
-72.8861685169 -28.08439627 -66.1231644813 155.563865599
77.0033824603 -1.05339607883 55.808471254 50.7129362144
48.655163054 -13.2944601149 9.35628462696 160.414392973
-6.43095384691 -27.8476379667 -18.1767328121 -279.985456203
-67.996453737 -4.21542046159 -94.5401240469 -355.764374645
74.5332394247 32.440483266 102.055825855 432.808814839
75.8863228074 -14.189306045 -17.5503653692 243.908936242
148.073364032 44.3824988988 -0.608687850881 15.4359288947
37.1175406812 -6.03152253974 -0.850064942257 -319.552685085
50.9597433142 41.9323737546 39.5490861174 -1.73798716609
-2.31167750572 22.3075453928 -2.7145299679 -24.0803016002
-20.3399379027 -15.2440018741 1.8765132991 -59.1243065196
-38.0325053886 -19.4752876537 16.1693909745 -89.5592230952
54.9673878821 -1.37516216883 45.6960682837 -74.3112193289
-36.0450857628 11.2970576628 19.9486664672 220.536199291
-14.0355106038 -57.5460846873 16.9836032838 -169.196064
28.8648032473 27.4440483416 22.0323433808 177.351917271
36.0409885999 42.8749637335 38.4127687098 351.285435347
-35.5797054671 18.435801619 -28.6234244647 -255.420937457
-4.12646822662 94.8514985289 -31.1913340481 32.7999672487
-80.1896236798 -100.707206127 -34.0949265893 -255.503992964
-5.80560458686 -22.0768904452 -42.5216851978 324.910429249
31.9305712727 30.4016876522 15.0357269594 375.907273809
54.0918666955 24.265854045 42.241190025 -521.661519922
88.2006363175 -58.6181631699 118.248071521 -213.529053467
22.6815753823 -78.5268382956 -2.08381440652 10.9221683037
-117.973395264 -103.174038423 -123.401087922 427.954871553
-53.5635480389 9.51894084446 -80.0436787525 -321.684443629
-23.4710708999 213.965744962 33.0372436185 -187.901071571
-93.8956121849 -61.0758636167 -51.2574298028 395.962951604
-8.31167408754 3.5591869261 6.83536764996 51.6743713463
24.7470499353 35.3003050807 -30.0992353764 -125.751375727
-35.4563273435 -6.51379117783 -66.4941615077 -232.972533795
-7.01778375354 53.3739697258 54.4885224649 37.2003743672
184.684355159 156.126937045 121.918688096 342.008643244
8.77774629685 -257.272434939 19.0857740526 127.702361039
-143.888956521 -91.0730412482 -33.2579474577 36.6563563901
45.6793365202 115.656918557 -40.3741990368 -282.439713986
-113.349670359 -20.4959938017 -22.6151615234 -120.438444969
104.055140439 71.8920945764 -1.55611999365 70.2342213998
-51.6467199879 -15.8821975201 -2.12131005294 -39.3786059626
-70.2895635764 1.14584723651 17.7128484426 118.142193286
-22.7824446057 -22.9310711201 14.2003813373 -170.146754961
-31.4066910747 -14.5798784256 -1.73939301064 -88.9643878341
92.9376134302 -6.79457816092 33.870297658 -81.1877967174
9.59016233191 -41.51109723 -12.9347786743 -4.6224463205
5.26886146661 -2.39606691921 -7.30610823536 64.1989611026
26.7754248589 -34.370934854 1.67170127742 -166.396924018
76.3555517254 93.2264986359 91.108813545 340.610996873
84.933681642 49.0056100152 -43.5477599362 127.110376083
-8.85700434939 36.5286442057 -38.8046530515 -162.8246052
-7.86777907425 14.418429544 -34.7383490034 12.1050282529
41.8411650313 -4.604045946 34.2604809705 64.6413410446
54.3505395406 2.18388165238 36.3151417047 205.340722385
20.9989674636 -0.812020682497 38.4986810049 77.3600853844
25.6469596738 -35.6513339909 -51.8134962183 -212.080578823
-124.201695077 -35.2854378249 -8.97767286421 27.9129788669
-0.303519638245 -4.12489420361 -41.6051240645 -304.084340386
-18.0750450199 36.8932460229 21.9436453114 515.432099314
17.0672084988 -40.9756926152 11.1252821719 -470.853120476
2.26008789688 -59.7795621788 2.73769873984 208.827817929
-20.2405197962 -34.6812296688 -3.76604105351 152.298422934
-2.13504007573 6.58932509888 -34.3687618579 -286.977657395
4.87707947388 -38.7923759833 85.956303746 -163.636711102
-42.6247943407 -27.6031432153 -11.7917196927 7.44243293536
-99.9037299531 -28.4319844387 -60.5119321925 176.670954233
-95.7785174971 108.291775932 -73.6531575168 -22.5078585294
36.3431756521 -66.3167836243 17.2813697446 -341.365740578
136.810272756 72.5394119178 63.8536873433 -22.5599899411
-33.1796295817 23.0442075091 -34.0006444741 64.834199402
38.0800241146 39.519374722 41.9206482064 120.587786718
-129.619732694 -313.916321061 -21.868580524 -154.652423077
25.0213757094 178.754943272 1.04387526671 362.060201635
-83.221054583 232.210338363 -65.8564711104 -143.063517689
-57.1521373411 -53.9926848118 2.42115380098 442.431246993
64.1356719088 -67.0844949943 57.5226956763 -39.5690916175
54.0386764031 -19.1919462258 16.9251790952 -147.850624659
-31.7034581563 21.0494228035 -57.0927721057 -154.00984282
45.2081448308 47.2320280879 -28.1274351618 30.8202808718
21.7735502735 26.0141386879 -8.10385225339 508.044040069
29.6298294891 -3.09546602145 9.70765977164 -106.561158675
61.7297367189 -27.3541981639 62.0482259619 -90.3533712521
67.6254063146 -39.7769542053 77.0616509678 -74.6255272426
26.4875597948 -10.7525588999 52.1142637237 -232.395714134
-48.8888671821 30.5387368125 6.37149241555 20.1492108472
51.3738366205 15.9328609576 -20.6470359252 163.279318147
-263.523559338 7.86837850592 -102.53636572 -213.043410525
107.419952338 -48.4839974199 -47.6148544038 38.4475921939
35.8024653664 30.8397805529 60.9519749398 -425.735706788
56.7575183336 5.03725221002 -18.3192635697 -55.6628712039
80.4397447452 4.99906539174 47.414291568 -85.0536568235
4.13827308235 -6.87342219765 -22.8264145221 754.820172863
-39.9687958286 -58.0367038061 -2.01281005405 -130.511647434
-6.3437385764 20.1066869446 -4.69801375082 -62.2672499238
21.81064452 2.15033501451 50.2093118719 -16.9979821521
29.207295908 95.5138642397 36.0187360214 241.436285123
-41.7103975044 -47.6077195041 -57.0899288539 -255.809795935
12.7258962027 45.75114398 17.8831294609 206.977107704
-92.4134466423 -197.274708638 -43.7886197576 33.7717134054
-155.920143434 -62.5111458032 -40.6906884452 -336.062406925
-13.3060345046 50.6127626075 -10.6625982601 -142.231465039
148.276616872 103.904273505 81.3729645903 66.7788693835
93.9021828229 14.8514471672 -10.6938630978 120.33599752
-38.7109252927 -23.3546644906 -20.1989332171 420.688716037
71.1503538346 -84.6656353215 50.222477503 29.6690012487
-75.5842194135 177.934173532 -19.1424216192 -348.75943422
118.644455797 -484.684231393 62.4777052275 168.621287744
-133.788672797 129.044100953 -66.8138870844 -420.708427094
62.7147260657 422.347720415 -52.3814106536 284.491473954
-283.549407957 -34.5865251232 -64.1805603456 260.565602583
44.6619065359 -20.146597346 6.06143946606 -276.475753494
-2.95549856907 16.8749374467 26.8224380687 -76.7893726317
49.8826842815 51.7254022916 -8.4434560516 -56.228869343
54.2481830812 53.1225983219 77.4204797565 323.16563305
106.767272731 -0.397329137642 30.8689820693 25.2430108736
-8.99713923229 -29.5037795969 -46.8871820962 -154.755786973
30.2340752277 -47.0073855178 54.2794261093 21.0275856716
1.68807361832 -40.9210997955 -49.9744873766 -126.35057102
-1.80269744352 -40.5016816893 19.7648979964 -336.030605662
2.62505094902 -28.4469999554 0.219014204523 328.190523691
-31.2786335379 -39.0432903499 3.59848061081 89.5492090207
-29.9260868986 48.7412591297 -30.8022983306 40.4292434342
-16.2195483514 33.7739846347 8.93089474382 122.915843959
5.11920229975 -6.92046690102 -0.304837652458 -21.0539123459
3.99335233168 -90.5017448515 -11.5079970334 51.5670651924
34.0889242381 -3.10533786083 29.9998131463 -380.013318784
43.8273871322 -45.0840112544 -28.1385964777 -409.308036837
-152.939581968 84.8078194637 -29.2535968069 232.218669808
-129.726011095 -57.5855972408 6.98590468507 147.424859842
-122.408442356 -56.924230745 -73.1812481641 -75.2596864614
77.3509277898 -22.8298385546 -16.5361204897 78.4452189863
15.2289708461 67.3599318838 38.5118010212 310.248078585
-20.2999644467 0.8499294754 25.5976177618 86.4143051062
82.5350651011 -19.6071035417 24.521802478 -238.00492197
-2.41952427569 -30.6024014202 -20.5265786086 -134.375780279
100.445433665 49.8039802311 14.4097372781 209.040316821
61.7464687103 15.8316530744 46.6407365065 64.4634223742
80.9952856374 124.236628595 17.1065055211 -115.776474012
82.8328230784 35.0259740783 42.89841145 -66.3295871418
-234.026351447 -72.4510595752 -123.668091429 -117.423420741
224.207865961 -105.914729195 95.4468398016 280.825265594
-89.0752627485 13.2159298647 10.4978282377 303.379778854
37.4074581435 23.5120947208 -42.8719107565 -260.666781916
-47.7641491871 30.4746466316 2.11227393837 31.5847066221
-34.4918336681 46.1180893511 -20.7336444673 -74.0969517354
-30.4442875794 36.4756140746 21.5848301557 -84.8781333718
41.9576786568 64.241000559 8.13136600009 -153.639449816
-27.0591785621 32.2371307345 1.3667491706 -211.43663144
-11.5456425933 3.18568371214 -0.833491990261 -210.492203329
-92.7121007421 -130.270067242 -13.5952902866 350.15280868
31.3481849738 -62.1152225696 -17.5658075734 161.759752421
-50.0702337581 -57.8484354995 5.87718567787 157.557670103
56.5348354647 49.7933173659 82.9999368575 -56.0842162594
-18.0275350422 -19.9362112023 -111.340412154 -178.148544785
-38.87547741 -60.5814500307 -66.7564889547 71.2128315778
97.609479343 -205.445283513 62.0243128834 -243.255816598
41.6790298554 67.5069563487 54.0783635698 182.550263859
29.0608830053 269.698702864 -12.0242040986 -71.5431987391
-15.2770826481 43.879783421 -34.3296038398 24.2671407168
39.5385359877 106.06324928 -24.0050400989 20.660449423
16.2666448112 -35.3709078478 -30.2136622488 27.5716607721
-60.6430999109 -66.3273857489 60.8790196772 -139.059679129
-102.097589637 -60.7358713402 -27.2423256865 -75.5930906774
49.5838491731 73.8489239184 1.42469942864 272.064667698
96.1809943526 95.0527336204 17.3726691843 314.03949087
-35.6697843922 -299.820380121 114.507619015 -420.359605075
-196.765485052 -85.5633054346 -63.1436651138 202.158775895
-12.0555288567 127.808249362 -14.6281855889 139.739815913
59.1396056914 -27.0485350587 1.25056456885 -164.169812758
-52.0473223387 41.3752354971 -57.3785362659 -235.610506305
78.6649968594 93.6963689429 47.4129242103 66.3502281968
-0.777823587886 35.8254582861 19.5693143583 450.825953673
11.4837846728 38.6757211855 -5.57762745872 265.085670142
41.6883467104 -14.3160362976 32.1853880001 76.4697596999
74.6728840922 -42.0726800368 15.6354780723 -337.091353117
-15.4268284618 -32.4957546326 -29.9531257172 -194.540014716
35.1430318898 -8.44751283609 -11.8233211206 43.2801817651
-67.8826820762 -8.77011834807 -29.0391491766 202.359727615
31.3679414278 36.184453518 -36.7935898173 -636.363722572
-128.178918051 -68.9173556771 -46.5163367183 91.8643897206
11.6317442141 62.5999230712 41.7793963181 108.683910449
-75.0439700929 -74.5031314331 -64.2256228945 -389.123433362
81.4235361284 31.3000852434 89.5896415418 192.940033999
35.7050300471 -42.4200037823 4.13985792563 266.938775195
231.524239313 80.2750700743 142.332350458 144.282701462
35.0377835863 67.0730168163 -29.2776612785 144.150431284
-37.2592501967 -201.600277984 -32.9617795498 -113.036675095
-140.963100192 66.6766774879 -77.3436984355 -88.222733879
-176.083775334 93.92053218 -67.9258463762 -175.749450778
76.3056659703 4.75227755799 -25.2159342131 -117.828827263
19.7346971952 -32.6759737528 20.905813902 -2.89769004376
-82.8510745842 -96.354099401 20.9567996601 37.7569298972
54.7195892806 -23.4681482882 -18.0591114562 -63.0008176712
20.9888447158 42.141406137 -1.41389152651 264.799650805
69.0281600208 28.8771375754 10.3960454411 -137.086129283
31.0020175064 -0.0494431278359 38.5174847701 179.797452623
121.588708034 155.094671591 33.0432676111 87.5583548592
-113.315659888 -196.365130889 -33.5727869886 -223.09772683
-237.965423405 2.98490623606 -66.4996052299 -104.109695703
192.317005376 127.532734871 105.915946642 -215.762741423
81.899293448 42.5436063821 46.3425138965 343.056281392
-105.777060469 -74.2609462688 -14.2855818922 -29.4619395129
-65.9128518592 37.9302556842 -13.7606333145 -59.9457182942
-78.3605609323 -9.30606890233 0.461593558338 3.35023458027
157.855473815 -47.9013742701 36.6257248466 -146.322405386
42.71161847 -50.3216862835 -35.8857907884 476.295476436
76.9149361953 -26.3374003801 15.649795417 -297.005254538
-48.0789236136 -17.4062638059 7.02308043142 192.732734585
18.5338408161 7.95739109689 38.2599640657 59.7946388311
-106.012538397 -15.1246148291 -74.9004435484 -123.337925765
-6.05363990615 22.8822081182 -7.66760523268 -148.684305355
25.2944542641 48.917903716 9.73645599064 175.402699752
63.1174678741 70.1949348113 45.6192085467 98.8281202658
-7.76796298565 9.67595690283 16.0505823861 62.7193963253
-27.8049585069 -27.1908421561 -7.71388523756 -137.028203639
10.0141088123 -46.9809330103 -35.0324649563 -405.728826796
-52.4339188456 8.11302978544 -50.3526426351 96.9535873509
23.2101821317 43.6790610444 31.4198469067 -117.320924418
27.8086735101 -24.0712507009 19.9754957635 92.3189714228
113.872832225 -122.615756544 63.0783163738 322.392595904
-72.395149343 64.268307243 -78.2408841388 -123.990429672
-43.9199386297 213.32464279 1.96258598041 -7.17966450553
-23.7086133084 -36.19330569 -71.7810934348 37.7318864485
-56.4475708117 -61.1039873963 -15.6255911665 -4.26373291842
-71.8930016654 -47.4591223056 -8.27268576266 41.8875881896
-13.6610375026 -44.6783872882 22.7378636978 59.0252973579
27.5823239745 82.1777661996 -15.0900924544 35.4164218567
-26.1033107413 -60.4837861569 -9.92437186968 -93.8184185841
69.9813087883 -32.4957152413 66.7480555181 -10.5588933369
-10.2492313368 -44.5102944455 34.2957304568 -11.5892002465
46.7235273156 -0.00584208995653 47.2129167661 51.0805146476
-37.8964413528 -50.3538903722 -24.3553551641 183.252821038
54.9706862617 -26.8392744295 -103.323164575 -20.3451148039
207.941487792 208.723942958 116.02625261 -199.454832574
-25.7552726697 21.5420419577 40.679904085 49.8162231315
-131.267833529 -282.403447812 12.9699457649 44.4723076532
35.0136962555 132.104156372 -39.1966691774 -325.583542643
-55.2762864323 229.446503441 -10.4467868411 71.3068777011
-8.36978373329 -67.3270350305 -30.0808972846 -59.9944825441
-67.7457972686 -45.5322927451 16.6415871378 305.53807419
-57.6810623299 -45.2543308921 -25.5856694113 -185.15776149
26.139623978 3.40441533314 -58.7877388984 -22.9318685594
5.21032851698 32.9675267043 -3.5690307641 -165.950038727
52.8537042332 14.0402406371 37.0193741703 30.0145593861
21.3040016799 -7.42166862219 -34.2770451118 -64.0900339369
127.888032923 43.3179311089 74.1338076952 284.11469954
-6.09539847362 -46.1492221453 -0.513240158819 415.459189343
-58.9019490195 -85.1133842869 -46.9137721514 -198.968560548
-38.7002952911 28.2065036839 -2.21496453165 -247.01432494
-10.8521537113 30.0858168154 12.7129986002 23.751150197
-0.831562199148 -28.6836019866 29.4858105454 156.57972465
-37.6742283631 -20.9030838001 -79.7542969845 -73.894700761
-2.98858490422 3.151864968 19.8632964535 86.2412901026
34.8616161285 100.263501943 50.2195962861 188.390110472
30.4097755166 14.8982005155 29.4346432099 -382.490247651
-69.1008351272 -69.1707270463 -41.0892463249 113.243036774
74.3950745714 -81.4481524568 12.900276683 -279.41963654
-51.1106987682 37.5456191813 69.8947780293 321.5014731
-82.9945240081 40.4469817079 -109.503679831 213.455139228
-85.5354589736 -49.6444723564 -49.6975319952 -288.986022222
-10.7925908935 34.9756395387 12.8807783098 -164.607624878
67.4347414796 12.5255549703 25.6622630072 -241.113619417
-18.4085715501 -15.3988151812 18.6907400569 95.2942846325
-8.98278191843 -36.5107429142 -11.5220624315 144.181543976
-89.5102131761 -62.1812886155 -82.4092712423 -150.985861123
-5.47318077716 62.4103752399 88.8673376629 230.764608911
240.551200335 57.7388312581 39.613014167 417.568350511
45.0044521518 57.6990455304 -8.64839655511 3.13970192845
50.0193042802 -267.353534986 23.0367939469 205.188578451
13.0340476146 45.2644675467 19.5748641797 -143.760596635
-158.397966152 222.589654004 -56.7327161678 34.6060663969
15.2931799164 -20.957262839 63.9726720769 -171.717770068
-7.51215877244 -35.687810223 -52.8826120961 -289.622640563
-147.65749456 -34.1427268334 9.56619795202 -177.328386449
27.2792576228 13.2135750348 73.2097353408 -8.20793431581
-33.8085004151 7.09737260554 -43.9862550182 36.6225419012
135.371520602 60.8968748392 51.4961921326 98.348449001
33.195376854 -29.9931074453 -39.1078921464 -222.526142562
-3.14959085089 -23.1111170037 -51.4044092517 -1.56912787849
19.8196401935 -12.0391941922 -32.3030001264 62.2590546927
-15.8904489666 -9.40376134901 -27.8343643358 -498.04300856
24.7151591839 54.7895170749 31.2472787572 484.335674595
49.9954741855 15.5269837407 5.44235430021 220.121843028
15.5068367022 8.44337299156 -18.5009324324 -150.734348686
24.7588916812 37.3752872183 -1.07359117986 51.6642364169
-37.3756859491 -50.0708575277 59.2110567965 254.519686552
107.71716064 -97.5523856185 -11.7718427182 222.97886906
-127.153508211 2.76201776536 -73.8867463518 96.9958772143
68.0802948974 62.595783932 56.7691455516 -88.1414480431
0.207048536412 -40.7950499946 7.50819814661 1.9033012821
40.4229961014 -116.649017629 -60.1902800762 -395.875621336
79.1270140229 84.9380363449 133.790007638 13.5527874399
-62.8792991426 -21.6467469944 -22.1107058167 -50.3548757587
-382.904596308 -71.4416799788 -127.432134016 -408.561517408
178.238216665 119.434561143 -55.2497473096 17.9893670825
18.6310375144 61.6814922911 55.1482896911 35.8144416229
21.891164251 63.1856074986 76.3293423401 297.234777433
58.2917181236 22.0687409372 5.76831184359 186.497095852
-64.8084373348 -22.8192369213 -29.9235891177 -3.21260348324
-22.4036705682 -13.9681464365 20.6976698425 -169.92767773
14.1572542444 -74.3207521369 11.7119606762 82.5769870775
42.0719984833 -31.0602003004 53.8530533342 165.498505131
80.9952793189 17.4102232997 45.3018304839 -72.6859920992
22.6599518843 87.8017113221 30.4995757777 -242.642624003
-6.99726130949 1.19882633775 -12.2690745656 437.846280522
-21.0683433233 -17.2641015715 -40.9740530178 -336.561005715
-74.5880379354 -13.1343559597 -64.8323017307 -219.607357115
-46.8333283972 -3.7649844412 -60.8799402405 51.3487477742
39.9069750281 27.6839292347 38.0755943598 101.861978303
-6.46448377292 -38.3687879764 -1.14681927019 -77.8179927466
42.9122459551 -18.3764035868 12.3424642385 172.42655398
-0.13053765525 -39.2345108799 -10.5758781461 208.060410481
13.9068671539 -4.67500036678 0.134654220195 -31.9433051893
-20.6724809761 44.7312678948 35.2331136958 71.5134548429
-68.303658114 -21.8004656061 -40.7820873694 -357.914119326
-44.3984423998 -18.9931870638 -44.9830837874 27.1955576113
-66.2095096289 8.628587166 -2.95046889696 185.037362916
33.1608830635 33.4333155396 17.4205254683 -29.7131711892
-4.567746462 -11.0447138311 43.8086470757 81.0221412808
132.233057427 -30.0454341468 53.7843301069 98.9664337384
-72.1295085209 -25.2280653791 -32.8699558224 -256.420248837
-36.5987164685 3.42276018254 -21.2141607576 19.3697694719
-9.02588745524 39.8597154665 38.2179874931 305.315909962
69.1860138137 20.4208642823 -33.8935162423 -158.237912815
31.1988859213 9.45787956639 -41.4851025147 -52.1853212166
-42.9630671054 -20.8387474606 -9.87505961586 -107.141148097
-59.8120093325 -60.0537662429 8.23854543224 90.9367781091
-51.7363987773 -21.5809407815 -28.4810173835 -177.813783493
69.9064998538 13.219091914 28.8326352559 -58.6287964447
-66.913090072 44.4722721234 -1.97371831415 -164.474447224
108.316082756 32.563290245 30.3481956484 258.663973021
-31.7710015572 -0.340306000366 -14.8426390811 167.200477746
16.9815568752 29.7664079627 5.10349887939 -171.963314764
-12.2873344088 0.545267818707 -37.7224959878 -158.788242972
7.77930140586 14.1520106238 20.9374687252 157.976136982
97.1173427212 -11.5385842059 22.9977189899 127.212576023
-28.5691168978 0.976585289334 24.5331741601 127.659506042
-24.7030376706 15.4534502151 -0.785522528281 83.886898049
6.94812845398 -25.5147569307 34.1081765253 -164.364347399
14.7255552639 -67.0712201856 -10.4489590605 46.824820001
-124.901790616 -238.391620131 -36.4869985975 -187.267707973
34.9991685114 -113.879066819 59.8121268525 141.612532711
-76.5799467826 259.47121076 -5.86839876856 94.6890913802
118.747770227 67.1305498297 -18.7554021002 -128.606825532
8.79796226169 113.44774944 -10.6272897124 268.9481102
-5.59053162437 6.55152432401 13.3186230269 -87.6872048877
4.18196057092 -35.0844165683 -63.1912492925 -135.86478282
78.1680481483 42.110091603 -2.61013488764 -227.032476511
38.2994599834 94.9225302589 6.83444474632 13.9064779591
45.3747514356 26.0106934578 36.0355824894 -40.1471833564
-65.2493122288 -44.5567292444 -77.2705247326 21.8644861991
29.9505415506 -59.4756293403 14.5560169443 -91.1750067374
-18.3505231044 -88.4691363778 27.1559715097 -143.229716332
-10.16210047 -70.6890132343 -12.5158872008 -114.743090924
-25.9165610393 2.76357776829 17.7047032248 462.997835223
-79.1565511411 -52.9328809001 -55.8438680253 60.9949433705
0.902402493565 36.5151945776 27.4224834961 -96.6362105451
-39.6522764517 87.1255908229 -58.0903497531 59.27240508
102.230902313 41.2371562498 47.7616457671 15.569309232
104.599196508 24.4237752492 33.1826766459 4.14850467908
46.1600875468 -16.4030288046 37.149818915 -100.20112378
11.1856253634 -1.76394417604 -11.0547981628 -82.1342484668
-48.8786608924 -47.06987547 2.94542373559 15.2664190157
-10.1959095145 29.9477893946 9.70144321429 225.653038922
-13.865298066 33.468447598 67.2356820521 214.06204577
-82.2942599872 -36.527021639 -14.5241833186 -292.321756596
-6.54324764627 -18.5397260162 -0.177111356045 -292.949468545
-31.7083507886 -42.0248487245 11.4648070253 233.40594938
-62.5846429768 -74.3376112746 -58.6495072196 254.908760781
-127.41953943 56.0797395433 -79.2232113272 74.8477378825
49.1499970339 33.4920644904 34.3883837445 -309.60306706
62.9600302224 44.4846867847 -14.1434342264 96.6952365791
14.796891895 -55.7525353829 20.129767864 -166.3623129
67.6902549562 25.7253191475 19.7152316969 -206.98212791
102.838685693 -75.2954415842 -7.46791195878 214.950578199
-63.5683259975 -241.699274453 39.565180641 184.407296158
-98.5485710116 223.735220399 -106.939780588 -156.854583415
62.2545247988 210.983863329 140.619169732 -138.095561585
32.0802910801 29.4942565803 -55.1216810656 294.643470839
9.24883674767 6.95003928817 -31.9197087755 -94.1273709806
17.2605754627 51.4459399197 49.2356942855 -155.587927243
-25.3473074659 -48.3668595536 -29.7175712822 159.28693176
-106.124034499 -51.929393697 -72.815152469 243.675983485
35.1400050652 -75.8454006359 22.8881743564 -141.952892166
-22.9615326165 -82.8630727982 3.871710418 -98.2184604199
-67.4617498842 -65.8311435418 8.15451013001 34.0022471485
87.8368126032 -96.4704601363 -10.3182001189 -38.287042145
-61.396671146 31.9226943454 1.18605314633 -13.4972245346
102.181406851 136.422972343 39.2136865335 49.8944024809
43.8913407839 126.802505518 55.19387488 76.6482673971
-47.0511145568 -10.4725146298 -30.3963247211 -592.487186031
-31.3395260823 -16.7659238599 0.14245525667 -352.216222653
18.6587237085 5.30780378117 -15.5722542257 765.006830828
11.8861824801 -26.1566933895 -1.44800590227 -280.382108482
1.24297231499 -24.4321116552 55.5878840046 228.204551754
-24.6485510655 -55.3872332738 -18.094243663 130.453851093
4.46718607733 50.2002232618 -38.0950726712 44.0350687262
-51.7866775859 -13.11949785 16.3787896183 -8.52125673012
30.5310409873 69.871522197 -10.814095923 140.032725572
-15.9023608768 0.927846459452 -34.8001412849 131.580051573
-39.9074386468 -77.8060656169 -14.2742100401 -302.179790582
-26.3947495037 -27.4886509431 -16.0791979759 106.140735398
67.5670150078 -17.2946015457 71.1208842004 -182.696352209
66.6199329032 -15.5416850914 37.176881633 -8.06336473846
-65.0651749663 52.0221170753 -31.1183901658 206.135591295
17.4665203814 3.93327432844 -30.9041960775 -159.036380254
-25.4688639473 13.1482546743 10.6075725249 251.079859633
26.7515662527 46.5858460872 28.3566289645 268.023679617
11.4053391142 -24.8289639755 -35.2922753125 -344.810741492
-13.8892362967 -17.2740424084 -36.7515479737 -185.555838394
-14.6951370883 -50.4583256074 -11.7751453391 -241.041461799
124.964310936 50.3929410476 88.8802757309 202.935060623
-8.6950558786 25.3262143116 -34.7733515891 356.99916277
-3.75823949477 8.06455015132 -6.14872897407 -313.07350717
-67.534746243 -46.0437422014 -37.2199416004 279.132416096
25.5077220117 87.3227808241 20.1045115739 71.3565132681
50.8215993835 50.4601580748 26.4368530968 -174.535375001
-15.3794273928 -177.958431931 31.5171598765 -38.1317569827
7.88388644983 64.0829254602 38.3704265584 131.792534768
-14.6507434068 100.401972218 -45.4986075307 -117.280528265
-50.9938305512 -39.7046186465 -15.3673863487 -153.331145395
21.3622653317 3.8473005312 13.7782860706 56.9916442204
-76.3417147741 -26.4365776312 -18.9969524256 -297.372494581
27.5859266339 22.7079922996 35.4125135416 237.681964659
33.5093633449 -23.8407800354 -9.32661005582 123.57974849
30.7448046249 -30.8434035941 -18.8786662824 -71.7978186028
61.4098221014 38.3716594552 39.2590476321 48.3818448133
-7.28390656863 -10.8482585275 -39.5617976384 51.2406972751
-105.228561039 -71.4872433216 -0.516811016404 -54.6893200843
-258.029323796 -228.056001198 -122.974446448 14.9021734131
143.686097618 60.6454158739 102.999031591 71.6826651385
54.5585947806 266.243616675 12.0950684149 -182.117386568
58.5811662023 24.9126281296 31.1949035749 -218.278792114
-206.356664534 -32.9874290906 -70.3036657461 -104.577353241
123.480907097 -16.0414466741 -40.3780840053 84.9668908823
19.7411766801 -11.3488443614 34.3953370978 89.8162960871
89.7733425326 2.5661791852 40.6162473827 268.532139664
-14.358173743 6.60902240498 -11.5712061013 -71.3106500887
31.2265807898 2.47517248033 -15.4966936117 -108.710204657
-38.3199232547 -10.4134243257 -31.0456705925 -96.7973637435
173.28620202 52.4112805165 76.4264272677 -140.485405031
0.150433903949 -69.7106630521 -73.5931667557 192.06279647
-56.8164855132 -45.260139545 -27.9643106322 -143.331059358
-37.5534101817 -7.69680430739 36.9773129172 188.530537551
-10.4294944291 -17.6744996483 11.0378947266 337.263938888
79.7918067703 28.8029774936 51.2081739649 -127.288446947
-37.0762081365 -39.8198356089 -26.2070901943 -12.7223161675
-41.7274154246 -8.19328063829 -9.16463511052 -163.889608717
12.4679988882 6.69681007041 31.145863804 -306.81802708
-33.7359538306 -0.210619919545 -23.2046679699 507.720625266
-15.5764023872 -8.22625996921 -6.55506766886 -38.898587515
36.9211461634 40.5721084024 3.63016484514 -183.766229067
-58.0996912376 -16.1042596312 10.6278654714 -51.2592555282
3.43957310789 9.51295184957 19.4847933446 -32.9087057703
-16.8565160135 17.7533260515 42.8647239143 107.625493456
114.714509421 24.8963616588 31.8146761913 79.7772996713
-161.252691599 -71.1841212416 -68.6550201295 -187.65970966
92.5094427653 18.228563751 51.7061529829 215.116944857
-91.9927516563 3.74637322326 -4.39330089144 375.179406439
-39.6076107429 11.7972399377 -8.6890891029 -466.93598888
120.834091946 73.096691225 -61.6120407624 -414.932009529
-91.3324987796 2.71725996497 -75.2762473586 545.122002039
35.914086865 9.84329927784 -31.7080797966 150.379248502
3.74398424426 16.112347664 64.3716769897 3.11102425992
117.009335679 39.9972811459 38.7606712481 -178.553853442
-17.1598883324 7.81671733371 -16.7557970414 80.5232387337
-164.221655212 -130.026770002 -22.706454504 35.0269946858
6.85830335767 -13.8843841134 -45.5587831411 -10.1642909374
-18.3028684035 71.1604678561 89.8262548077 -65.9373900316
12.5761555681 -17.7196525479 -35.2391948429 -219.634404931
-69.1302574763 -52.8131508534 -38.0835800747 233.260579511
43.0497817856 -15.2964438201 52.7660075342 -629.006650506
-5.52061306602 -35.0280896215 -8.88378675156 93.1516251407
47.7953325719 67.1310560142 3.9308757246 234.2462467
7.72689685778 53.7359693378 14.4122363794 -107.136569085
32.4799642317 -12.3904691648 35.6976240746 48.7764347411
57.7488986465 -16.466415449 49.9120772325 -108.50216759
-17.3255827262 -17.0060712207 -38.1746877603 276.038818927
48.5843018681 7.70202528303 -16.4038115795 63.9179713771
-22.4169185041 -8.2402705678 -17.1913364482 -9.0187618951
7.39535835655 17.6863137461 31.2863954218 312.450210952
-32.3726813968 -11.5728864808 -19.8539911464 105.807490158
18.0468741394 40.0628792311 -3.32833672628 -19.321994554
-32.4951345122 -48.6315022286 -34.7531584453 -560.678923729
60.3090245601 67.3128006033 41.1955519737 191.642510204
23.363650779 2.45947197334 38.9024013709 351.709579636
-66.4889648233 -59.5965864913 -17.7317601688 -447.964032844
24.8392344918 20.3348668813 -7.79042897368 257.401510144
37.9421948097 32.4926567953 8.94482273058 115.540358465
-91.2307964018 -34.9175583063 -23.7079223675 -156.374205175
-53.5312572014 -11.6269341051 -37.8761591589 -118.354773892
73.8771265011 -1.81545039136 51.7204428272 -113.03077097
-80.2701156533 -94.6458052322 -44.0199672999 335.986441054
4.16177941615 41.8674148391 -5.98512786507 81.643833084
66.6130767999 28.3881265311 14.6362145795 -331.289457135
-84.1295487084 6.41355522801 -47.0988454933 191.298031817
-15.2248139762 36.4552513914 1.1578397908 -241.440763028
27.9618007014 51.8750474647 65.4957346207 1.73616896568
25.0389080749 -113.200341616 17.5154746907 -176.036283509
91.1555111341 38.2285511226 13.8559208266 -135.083572793
-7.19845009564 42.9533956884 -35.392245291 130.239121268
66.7454793855 20.6286779632 -10.4313661366 0.673154879459
2.59824889082 -12.0217653676 -17.5808825462 168.47777681
40.7122096784 -29.5200681437 -2.10896756956 -48.5903556286
-32.4662595755 0.0649057465927 15.1000081679 252.159854302
-27.8667008974 32.3108196916 -26.2726143146 104.704373278
30.8074914654 31.4637546809 18.826826839 60.6981673881
-87.3392886858 -35.8177644449 -7.15727777667 -217.921937366
75.0305894657 -38.4131749127 -6.20837124557 -156.154877449
107.555124305 86.0183394064 103.016414548 -228.704161973
-372.141887619 -387.383060709 -81.11327995 -49.592865136
33.2595992098 42.6431865447 30.0065425103 239.336133648
8.43804970463 269.2013848 -24.9902756772 -26.2972440915
-48.3029168873 0.0540548068006 -1.14957158681 34.9929971782
81.051063159 46.2855698514 -10.8567364218 12.2265605524
-21.5396174462 -17.1951804927 -31.6331580122 -123.330761824
137.31010422 -19.7183072465 85.6345030561 295.710915504
-57.9447662365 -68.6873561371 -19.8910157159 -187.938905225
15.3805683331 -20.9342030627 15.6274752183 -236.4799335
100.075369701 -4.82182631476 38.5253039805 261.380633044
-12.7714789985 -17.6416044041 -29.7064531292 191.724848908
57.2725963278 23.2466141063 -26.4315455056 166.354672403
-14.12339156 113.519139699 6.066735253 -117.118966221
57.5285057397 19.2475548836 61.9220962411 230.207626641
-66.0033540919 -2.54567555803 -42.301030336 -224.561998611
-34.3848748317 20.300765187 -29.2760678186 -39.4416037143
-47.3152197324 -30.6336839553 -28.1951279103 71.8155910339
27.8240041133 -82.0366038884 -2.43124533027 -267.433841267
-45.6656891302 -71.6960007812 -45.7693340247 39.9787170037
-54.3382938092 5.51434932801 -15.7815537928 -266.868036614
-14.8988653591 26.4929103963 34.0239357895 118.381500872
33.7960502423 27.19085887 70.9646681713 -34.1701803625
2.78732111585 -5.53933915366 -51.4640388069 365.411592358
9.26905727772 59.8339716148 23.9756985619 -205.473784134
23.3370983364 38.6834204291 0.555167538141 171.798868706
-34.2568661872 -13.1234143962 -33.0042301262 76.6309039496
6.0413123195 27.9061629315 37.3576818619 13.944055076
20.9451173436 -27.2415970625 -22.4908742651 -164.769120078
-27.4256481736 -61.854659141 -0.563460494649 -188.81269736
-85.1368243384 -65.2048326021 -27.3743306377 389.43943598
7.93064390679 28.1584346277 -7.84411776088 -203.165981144
18.6210853501 28.9502478554 12.3055188133 -11.1453477033
35.770731225 31.8768898835 37.9445308624 -64.532337307
33.2761280326 19.6609477857 11.9786238927 -175.771779351
-25.1019513614 -22.5729709974 -36.5435380447 151.681919351
-8.81440220297 2.60008255042 -3.79659399986 36.8967250282
-49.5170163789 -33.9864345352 -12.2458204038 102.674089484
30.2869424148 -5.75148374887 1.8469294406 10.1061019035
-19.6457208253 8.68033512787 31.9945992837 57.4726127127
-42.9538818278 24.1568361787 -50.4209212972 -71.9067109037
17.2171206587 1.8533902497 18.4928269802 -18.4934607946
76.76497369 -59.2124884247 75.9795983883 106.649797071
-16.8897796555 -44.8447541493 6.81213440735 -212.94398287
-7.88892996948 -4.6852494186 -75.975218569 -135.41469614
7.97092717242 64.1208215098 2.32909166231 3.24983985442
23.7306371882 24.7669399415 -5.70304538924 -25.3135336759
57.2866769842 37.4029052893 -28.4739845948 -71.2250189119
67.3418090307 22.2710970367 29.1581725309 142.138583856
32.0974566243 34.9842909262 16.4443522701 28.7172011922
-24.6972886445 -91.1618208041 -7.79400947931 -79.3923334175
-78.4852099604 60.827319969 -20.6373665307 172.303570677
214.258691621 107.962837039 105.27207586 60.407450611
-13.9061628913 75.1582106775 50.7202310077 -45.3757050605
-43.1044664885 -137.236203062 -6.69453204951 102.823912283
-118.168660584 -102.802310261 -13.5250789899 -176.404642052
-24.4572971898 0.417844774967 -13.2925142211 11.2711527176
56.266852627 44.9276165382 -13.6296866258 197.983328581
-38.3662131012 7.48511737119 -45.3543786025 -7.1494000868
93.8395609974 -8.61972943775 45.8118698416 3.88447462185
-28.1620538388 -332.028846098 -42.5388261947 59.9703781217
97.1853438544 115.101335841 8.7992693564 -313.610392137
99.9559172793 317.225332036 -11.1473952774 30.2890333856
-203.457696798 -61.9756604199 -19.8274936521 165.313208254
-152.275810087 -82.3680966359 -49.0759814129 -43.8277685985
-135.024273544 11.8520689519 -36.4323504641 -242.735999231
-108.769824312 -11.767191643 -41.5908162291 192.9784814
57.8221263089 -3.08428743847 52.2465350225 69.4080990338
-30.2444362181 5.27885222224 39.6798247053 147.253510685
-12.2334084075 -74.2312132491 -10.6764366017 -137.311944563
-40.9637624206 -123.37814189 -37.3015651164 -43.7260376018
89.3131024295 31.0754405108 15.7500438486 211.32018957
83.1553872512 74.3691349165 20.0055803608 46.8043194757
72.2647412178 70.8127655987 46.2804463323 -184.637397328
60.9446027309 -67.213826701 -25.8815998443 -1.02312171654
34.4852693217 71.7778920782 26.8543146417 -129.225467935
-63.0365891255 100.496340359 -10.7599103372 -97.5693168082
-49.5060236928 -1.50354957344 -63.0397379641 16.4080468613
141.98854712 -52.4669114023 94.8637632892 64.2815895321
16.8691766151 -2.76123988405 -17.8355985471 -202.709596672
33.6352244637 39.6772411894 -2.00187959331 80.5114076689
50.5902488388 50.8062894495 39.6170136109 45.8077972904
-18.0636768536 13.7112060468 15.5392962071 -61.518027851
24.81044408 -31.9330465628 22.9476998717 59.2353525999
-125.10514775 -55.5643168891 -30.226801392 329.480623992
-143.163649944 -16.2738001965 -4.6905338431 141.699931732
113.907370136 -5.86413295692 13.3245356849 22.1286838926
61.6508414036 30.3496086364 14.4047984529 -215.923514774
33.8522369257 -142.070763911 32.4329401999 -106.388160654
61.6825575875 46.0887104958 39.1668264578 -122.580371144
-45.4094021118 168.007867567 -17.8143822692 -158.939104449
106.063308031 -19.5465496242 -41.9744626685 -95.3439199105
-152.76646505 -91.8421932016 -64.2836764457 -59.7450279068
-181.465325255 -74.8398830704 -60.844038975 -191.177969131
-98.0624937632 -72.6681734892 -23.6993435539 363.333944622
37.0592887778 35.5283952417 -1.74876557031 342.489073938
2.61396302205 31.2334039474 -13.861962762 33.2000464422
-0.696535814757 29.0404918393 0.392466065294 -91.344553314
-25.7210930465 -14.8543204698 9.54969474487 139.388032807
140.427045367 71.5520453687 51.9640985595 -73.8326231024
76.753685254 37.9046722393 32.2044709309 -70.9832398025
99.2338975613 40.1466110533 56.8314475234 47.4892924112
-42.8092159838 -46.5935993191 -42.8728339316 -119.421950308
63.7134197299 45.7478609864 -42.5262238038 -116.012682527
33.9687647047 -18.7847057678 -18.4757305079 354.874467385
-57.9916538096 -38.8201074174 8.00498162963 52.103102688
1.92453991212 9.85896205618 -23.7511123863 87.5289522487
-143.68439052 -100.17789838 -43.0789835896 -271.228135892
-55.33994067 -103.521359128 -15.7477028473 -115.218460627
-20.1199347938 -56.6600826116 -32.7019595288 93.2541884569
-8.0282416342 115.656905759 69.6315912009 -49.5516725694
37.8791453787 55.1284666627 28.8943651893 -58.9754409926
31.364614646 83.1431257921 102.091520732 16.2501833728
-39.4915924494 99.1074383689 12.0560265517 -243.517930207
115.237382193 -7.66976221049 22.6041799357 238.284035415
-79.0521707476 -37.9569444348 -25.3893931709 114.493089846
17.482582976 9.25885087612 22.9275310253 256.418430686
-28.9687707473 -29.414202655 -15.6033692736 -162.949206903
22.2158657432 -41.2941361019 -12.507525649 -153.972965752
-24.5554521207 21.9725453388 -5.65173253264 -17.1919439179
-68.7309764391 -63.118085356 -22.5909945612 6.71482054231
79.2191068538 -72.4905788278 -58.699836555 -97.6971490145
-51.3536944164 16.8823482882 -65.3652385319 67.2742355897
59.4148193706 -136.650451599 110.228854946 -122.787712528
128.466694996 43.377810952 20.9727846752 -17.5999765638
-8.47468592754 204.877273829 -51.8859817482 -131.805177801
71.8743688086 1.64417382872 15.2753701796 40.399912648
-87.8982224595 -17.9392065874 -19.2306701189 -102.497311955
-9.58785807221 4.02769649079 52.8816849182 252.059614567
-41.453845305 8.79168816526 4.37140896539 120.139369917
-89.4009587346 -12.5923219951 -41.4273882713 197.42151613
-4.52693485953 28.0856019782 7.86285427296 -33.9870092898
9.83273330835 16.129349521 36.6572842223 131.758868947
80.4910711992 -40.3979482325 3.06475789398 -225.037273208
-66.6099708968 -37.2189640716 -73.3187778974 224.34903186
-44.4594074877 -153.842590251 44.0336629768 25.2564580832
44.7383820046 46.7443692172 -50.0711996186 -184.174303795
22.2620384667 59.0356132186 2.05671252709 -51.634898974
35.3737986199 91.3773118938 -19.02888369 -121.227514339
-56.7954811281 -7.43084238845 -47.6558462555 -200.469029977
19.1673271522 54.7958881571 -15.2024868837 154.828663545
-56.4627535215 -39.6862361817 -0.763887956736 -164.555262561
-34.7829453957 -66.7410031584 22.5387723243 167.802546974
60.3321968818 -25.3179871038 55.7724979871 222.970336631
14.7969892376 57.8036971832 -3.29945029445 35.2155575595
2.58347427206 -5.93478715187 62.6328203397 -236.049725331
89.053370016 1.79591620505 84.4090773968 186.530935074
-60.2717622579 -14.3301139181 -51.5106068539 -396.95853622
42.2754255198 40.667048431 -18.8230997891 -139.066547253
11.6827544481 2.23138966614 0.131293973691 345.916867979
68.0106358154 26.8939367995 23.3116217344 -151.411503371
-52.5628616016 -11.6562456662 -21.5479004299 -156.994090216
35.4997108782 -52.5843979112 -46.6962931325 99.0341821035
-191.052412386 -51.4847418585 -67.702013819 25.8602473603
100.481039213 -61.1797401243 54.9780270042 -37.399775165
35.3142906194 85.2435213428 28.0270709621 202.172127865
65.9178640591 -4.86283309446 24.0028404151 161.18300363
-41.1792371485 -158.873738889 41.1148557152 106.871968216
-28.8804796477 64.2345944468 -40.1177814143 -117.466089763
-195.453493669 124.422051129 -87.5881873555 -26.4073143726
123.569735924 10.0091769984 26.3057234842 246.617558837
-24.1010963976 -26.154848024 -16.0325415279 -256.066392056
-20.4688854652 36.2139153205 -45.6161666954 -18.4962160244
34.2736952599 60.24253261 49.5785584283 192.750949327
49.4441772313 3.09430440899 3.11841099603 -216.38977445
-35.8559068609 -34.2111498331 12.5333647952 -23.092884288
8.71883881024 19.3926616137 -11.0660050425 30.9107150649
33.1575463482 -57.9490594666 6.46322216626 -335.330828436
-45.8092725602 -235.905004213 -45.1465354559 85.3426438413
44.9001401386 106.12313013 42.2519647575 -376.574204273
8.45906055481 110.251645599 2.24804963183 477.203674171
50.8715732771 106.176129713 30.6471352122 312.617363316
-42.8595984989 -0.249742381311 -33.5509965565 -264.131247883
-68.4439610665 -14.1716993374 -62.2227891381 203.750673118
119.240408793 5.51761718784 77.2506598457 -147.782643326
37.8580184319 10.2971655714 24.2728719529 -99.4524922624
-80.1509833517 -11.7056238999 63.854438786 206.258621751
177.476692904 -41.8174658565 44.5020168954 -86.5692660593
-121.18528611 -62.6190171878 -102.207330445 178.51927188
-86.7281797341 16.4632118983 -27.3541102187 154.244073262
60.8612756824 76.25844189 52.7821589216 234.43530013
-49.6050724762 -52.1977269745 -0.876116458435 -326.073613086
17.5784442115 2.83013914423 15.6052521641 -157.857179367
49.5451726178 49.9590603763 12.0878361413 -20.3791338368
142.806681255 64.7959978079 30.0502386768 51.3177740172
-115.277001238 -215.262294532 -72.2652853022 -50.6837137766
-330.543625655 -68.1285970017 -76.4698633278 -154.202462729
68.2746611221 -3.72460544842 11.914896742 -175.270320589
46.3042149154 20.8890946133 2.0990904001 -157.946870312
91.7056909295 21.6922872979 10.0644842179 426.449228019
-34.5094952924 -302.594623563 -11.4310108919 -260.003173984
-98.2529003539 149.345838332 -32.5899329291 245.607887237
74.5008957607 287.546725681 2.77250974089 -38.7841351125
83.4664423445 -39.0962991425 20.4896679714 -28.2445045296
26.4859782422 43.3653612493 25.7600292694 -51.1477940429
32.3779927557 122.16336867 54.7661474281 -44.5930484686
33.7729815863 -3.64375820599 -13.1904503085 135.902127781
18.4653894588 -2.31312096196 -17.2556260765 81.7038499794
33.8012705136 66.5969016628 19.6952638222 -96.8279171175
-27.9870908797 -66.5903379849 -24.4349701508 389.006921701
8.90737012764 31.3145179507 -30.6765662549 35.8140834073
-13.4376534978 -69.0417366223 46.2144427011 -8.93143123078
-107.640364538 -126.535498913 -28.3109084975 -53.4984102483
-60.0197041415 -99.5519913891 -5.20414512728 -192.507344828
-1.82746642514 -11.9460006057 60.9276693307 -142.19831991
-5.41265670095 28.3622218617 -5.21167925261 73.0595800908
-51.3154368442 27.8315825577 -38.0215131863 85.8912397601
-21.2686347384 -4.2344325155 -19.0876597397 -213.460832059
-15.2229748352 4.2200421698 0.486020739879 38.8366469196
27.8540452436 36.7299353966 -1.49666398918 -155.209759084
41.6364898157 27.4678919303 5.78990145535 60.0848106569
46.0359879633 1.35921429811 23.5312958453 170.942173647
9.53758799033 55.2442595136 35.3124466078 322.879234358
7.48900406402 22.527949721 4.73968085216 65.1175942491
-8.13760183423 4.45737689985 -24.4039427713 -82.0661074574
-151.864241669 4.85867904087 -60.028030345 -206.899391914
192.105376673 89.438066069 106.028929658 -18.41999499
-19.1839852723 -47.4101054807 12.2851329643 -541.875868199
-41.8597064418 -95.5448094883 -41.9316833414 136.754153617
30.162720695 -30.1674527497 57.7569385629 -213.440690049
110.128356534 67.8673763992 -5.56857097614 362.445037853
-108.403043494 -266.798704264 -13.7146993232 170.637906192
72.4472518139 40.6295737026 -23.5927769999 33.1707236317
-98.318085959 225.39386052 -84.4268398967 -52.0184709785
-59.8435516401 -162.257860542 -11.9409262895 202.774565343
80.4014094512 52.0787886145 -1.75878083098 4.92529756116
92.0873023429 101.074418697 -8.2473978561 -205.731148864
40.7107244811 -5.18353997933 22.0607327115 88.7392590988
-64.0327653602 2.94507866539 -6.8492055725 -244.762644257
64.6780354107 10.8299857984 -12.2782286204 -94.719313182
-51.9633711155 39.4072122742 58.471937131 -86.3656010506
-43.005373536 -28.2832466059 -1.29161646444 261.382828848
-1.40033844654 -44.0718571903 16.7205263956 45.5961525687
-58.1362089568 -39.4847348754 -27.5873248631 -82.3717146663
-210.59324527 -76.971942365 -57.5481983807 74.4995826771
46.7879691887 -37.3119890386 10.864930905 -85.2459414426
61.1876489928 61.4072864296 -23.0145663324 -286.865635499
-52.576348753 -10.1528858261 4.33906606241 222.844745693
106.707721268 29.1795796061 108.281754696 57.2596828933
80.1615294165 -49.8625285265 26.0032860875 51.2448653268
58.3979711337 85.2564859888 20.6251259048 140.64384117
-27.1500477621 7.43852585997 -29.519499969 177.574401913
-24.81324538 -433.580061009 -113.679553764 192.579387587
51.209052089 140.558091618 2.22256086516 56.1313756346
-47.6671576464 483.022700502 -17.276191709 -222.325753819
-6.38195970819 -39.7267209827 12.3021297709 -104.29961928
70.0047122369 55.0027525495 25.5058723322 335.376273523
-98.6910373933 -29.6923086077 -55.3255111057 34.809656591
122.518276726 30.6057173378 132.631891239 -181.821917666
-0.0764740807242 -19.1937073885 -6.42729038898 -87.9074919163
42.6212772494 20.1845709021 -2.0373838197 38.8667762507
30.1310453795 -18.5959652116 9.6438472942 -70.5541818853
-49.4757178161 -111.718077162 0.106997961076 -316.808747847
45.501991968 -50.9258992699 -29.7239450772 -350.662409268
-102.0159943 -46.0942931888 9.85526788761 66.4285385333
-49.3453155969 -71.8037456429 -65.5711093199 -61.8879899079
119.521197541 19.1363070425 55.5327595444 116.747623576
-64.0066367745 14.0118379636 31.6038145671 156.847237019
-193.581955577 -103.97166734 -107.909888106 -92.1907539986
20.9762695136 59.8272855036 55.8625159834 -114.367719777
122.563331365 73.3337232229 71.6561089531 -22.3640355731
-158.220223751 -5.14162813586 -71.3866003551 131.067079306
-8.03706742945 -3.36921116434 -33.380982879 56.5382625752
-35.253167991 -37.8695801287 -51.8816242576 -103.832880656
-101.330579968 24.5973396747 -7.18600607746 -62.9646063677
50.1276923973 -142.010297188 47.0924118587 36.854589681
161.634062891 138.967082059 43.529563519 158.633693278
74.9305843972 223.675659832 57.6710360159 115.467745068
42.4023377419 -308.622363642 24.3620715849 -24.299495092
3.5780978411 71.0359201036 -74.4315494432 272.966018675
38.1016545548 202.518532258 -15.3549937607 -67.4784399937
16.3181640338 -25.1922115033 85.3976022128 131.590311722
-45.6537203158 -10.7727530782 -45.6225214112 -16.7896938997
2.33298116812 20.2260832387 -18.2423586094 -210.912997315
-97.8524813944 -87.3716790493 -56.7212545255 -100.615016375
92.9512877619 -146.997538762 -27.2906298242 102.540839241
-222.23698205 -4.77781513821 69.3888777344 121.164124265
62.1114551497 -14.7025969176 35.9972943657 240.023419597
25.6694350834 79.2162423946 -19.6205139835 -357.521555019
53.7704631574 9.49722129556 -0.292972600901 -238.298721443
79.5948830097 92.3288642644 7.6208054452 -36.0544498136
17.6669288931 48.7052458439 4.79861863892 -226.290401563
57.494265026 40.8380892962 107.928428071 184.786831679
-13.000329723 -117.969799587 -39.9644453771 400.51454962
-187.011893339 -142.565606555 -134.443005053 -232.847994524
89.7080055261 96.5818224888 30.5903800121 -163.206950366
-12.9730045613 124.092973059 -9.67926523682 456.621272192
102.247578444 -52.0273829042 11.4206897736 138.683563155
-81.7365147416 -23.9250908452 -36.5927065977 -163.808996043
37.8640353255 30.2167868678 16.3811388593 -63.7231798076
-42.1283289622 135.461162697 -1.59039762861 255.081268509
166.244458963 -68.3631253535 52.6310433736 -79.0661043942
-25.0217041539 0.824119399585 -2.4413528912 -129.392554839
-55.0770483676 -308.901009921 45.0585127666 1.7530408031
20.6278166897 -8.08326796741 -64.1511339373 -133.597785379
-151.002656612 155.347967492 -62.3741196637 -26.2027456556
24.0009113697 53.350716168 24.9950872194 8.50240785528
61.3035358638 -21.840584334 77.8865851263 37.6830599079
-123.056956174 -46.114392298 -54.7042594656 43.4014388604
76.280276752 191.532134732 -17.9210337648 101.495370542
10.318489029 10.0051242973 8.6537101207 -460.897410952
-65.0326918543 -41.7381265681 -3.72241437349 225.531252272
-0.238025672194 -110.458959839 10.8336849595 -7.83568983003
67.1398863481 -100.62897836 -6.31963262236 -128.202954537
-75.6756590914 51.9013859305 119.170450695 100.088610054
96.6473845961 48.5730825423 -62.2791748649 178.488076431
-12.5740101081 -4.35432776026 -3.71740101304 -1.8476297106
-98.7479110188 -137.443759858 36.02046206 -26.0648143767
-201.093094959 39.0112685688 -71.082479225 26.4115326178
35.4295834992 144.92166319 18.1056233779 129.291055466
46.594577843 -19.758781077 -6.66875120522 -510.059219434
101.370050632 51.1624972373 65.3715513425 131.605199273
-6.52642455399 -42.5057179534 -23.940535607 88.5460976567
-46.3166737434 -42.0322243235 1.15890914396 282.693098574
102.510694417 -355.585211297 -27.7285294142 -238.974228888
127.970994108 263.800996183 -17.9433821332 65.2246102551
-3.91371683611 187.823490269 -2.74179786936 100.536187702
-6.98325897874 -0.581091623983 3.52185288551 -124.543782383
-75.2955839853 -169.363315595 -75.8860879804 -359.79925028
133.270014777 207.215374608 15.3930146112 103.069106022
32.2246004532 97.962619502 16.4149282569 316.786211255
-392.354087522 -104.808878919 -95.367835966 73.5377319326
64.8706605411 19.9430367581 137.186598916 -58.6894253845
-17.3279048998 -135.459819157 36.8791567242 -332.608268449
17.1298773354 34.7318638586 -31.0106927305 77.1931369057
203.158192345 73.3109470929 77.9982940833 -35.060483119
19.251896627 -84.2724879457 -1.63768640576 225.777280303
-62.6329899033 -74.8411795645 -8.34267086424 -54.459107004
-34.4871215032 -74.0268577846 -43.6720266301 85.1429266144
39.8638095417 56.5622003035 17.0523780503 -175.396188978
-89.9540840114 123.866538378 -153.51245107 -164.179633447
34.5415831723 40.0090701004 20.4176018865 15.192082836
4.25908226771 27.6568026654 24.9335027492 -136.090592455
-51.9112027383 -93.8386783667 8.24162252878 95.2698696852
-38.179881511 -52.431329555 10.7256300624 140.052473346
80.9984706845 -63.3577729381 -29.2773228846 158.602781703
107.344799836 12.1250644776 58.6936279358 14.6050398584
-10.5413004386 28.3203547299 0.928965617236 103.552234257
-41.9659889997 44.7990482862 0.651595380528 294.907056542
4.48060698456 22.05410802 9.59729118655 86.7318494855
4.83247717475 -22.6626675082 8.07194400335 173.073101218
62.9060883486 14.8866449288 36.5128147235 -208.953951723
-39.4985972328 -211.654519345 25.0794952315 -54.0598693419
38.4710878661 22.863172395 1.31520021928 -182.603803515
-93.2869896527 203.017957413 -75.0697611655 -158.711784789
-120.066046337 9.69668163849 1.38238501029 96.1615250223
138.254037958 92.1311356794 -2.16752771963 -64.4522381063
82.0713663797 51.9248595951 32.363091405 -95.4269185006
68.6787996292 -57.4721896095 -16.0828150676 75.5282346256
-202.044069825 -198.600874915 -48.764715189 131.79607475
23.4976809282 14.5032096371 16.9902641218 -158.292436341
11.3114285625 142.939926981 15.1300489409 -380.03029193
50.9890180811 -43.6978444619 30.0902195981 501.112026537
9.84812889084 -72.6289649492 -30.9344247254 -298.006082872
-38.4903200357 52.2662295294 -65.4294742125 -25.6686767694
-20.9281433037 149.416491297 56.5530051242 55.9937190792
74.3274478222 -2.61460486033 9.79969975904 78.5877245483
9.31338916708 -4.95697966022 -22.7620834594 -279.945211298
-145.251886827 -114.671098333 -17.981526747 29.2479125009
5.42921966131 -39.9094783438 14.3798798533 372.224728365
-3.08110319971 -52.438599389 43.5421022111 172.225942922
-3.01986897428 -45.300563324 -28.9527169614 -409.148580502
-120.057181995 -56.9803440931 -41.3471139255 -40.6039723688
150.871222826 126.328193981 59.4906706097 154.318208673
54.6347624854 18.0493937875 -0.261450811646 105.563716857
89.5808030938 48.5533770439 57.8664089462 118.893924806
-23.189330343 -66.7627337776 63.3954477014 -106.186162197
-13.7394660608 -434.306915844 -18.4635268896 -233.554589911
-5.33377435076 209.503001919 -109.481478064 35.0075489713
-108.657635072 300.77236681 -55.9636762207 -133.069221752
148.261077525 57.0507547296 33.7353747516 277.393700411
-47.4168521784 -59.4149968974 7.07643585798 -29.6585456808
-68.0460160275 46.9201871147 -29.3750250172 -207.909471923
14.4185160327 95.0967981476 29.2168000206 188.464238327
-0.0056779998597 60.6746069307 12.9992863059 293.623131756
-25.6162645335 -105.929655815 -1.76433930446 -153.32793386
2.57653940777 -82.3970096423 24.7428692583 57.850804202
-114.265759758 -10.5257361777 -11.6869028606 -262.223472824
270.837195925 50.1097003285 23.9308919592 8.26302607925
-51.9218842166 -26.582331762 9.28450384735 -82.6010632289
-54.6692831044 -25.971736067 16.9248206865 48.0385082005
-84.215334902 15.776613122 -63.1057078242 91.1550450593
-1.37036109967 29.0275814567 -25.0074982795 3.55697669335
101.799727866 9.61580507117 8.09999184636 -109.721938546
-54.2320096941 -19.7740186746 51.7334518709 73.3331238273
6.6348073187 -74.0256193888 29.1688081292 66.6792242818
9.01003839204 -166.09964171 4.76942586338 226.233726942
-40.3946218336 32.582217952 -45.8047725233 -87.8873902302
18.1156746369 -1.1265607606 5.33502145528 -347.702216753
62.5202683188 87.024365667 -51.5342496942 157.607941774
-125.988819673 24.3664796594 -71.18016496 81.6728077335
23.0103029577 -99.5330734512 10.1115889045 -113.821848166
-169.54117354 12.1008173531 -2.85706984836 62.8027111533
131.44460597 -6.88298791966 152.378332113 26.9367983732
-38.7460739698 87.1782556402 -30.7204734851 -112.029781059
-3.15778161245 -272.820679194 -29.5159778602 16.1259638468
151.112366979 97.4232787177 113.189935105 -198.214951563
32.944734732 153.497011977 -69.4109231157 -164.263340106
-1.61441977435 19.8379351626 -52.1838596082 20.4054657496
-48.8577635695 -23.7007766619 32.1068482229 540.024463106
-3.55013687637 -53.3395811968 -9.62230855866 27.839543399
-106.416595133 141.04622545 -66.6856726713 -16.4961918692
205.706211303 122.039383103 -21.9038257897 45.6685996322
57.5845587679 -12.1577851366 14.9162272857 90.1636080396
-51.2652103996 -18.2760755686 24.8871093229 15.883566678
-8.43943680414 25.0595341472 17.7022641585 187.199671122
19.5235547416 19.5911763488 25.0356067542 -162.364356249
28.2179186854 -13.4524473817 13.446095561 -238.796867252
18.7483267706 -17.6925355982 15.4017726847 -197.239919768
-28.6536723969 -65.3706355015 29.3282524433 -201.828517943
-51.3371198829 -122.185011866 -46.829851114 -76.4969028474
-24.8091982348 -76.5864103086 -3.58609958634 251.133813595
-53.4354697827 14.2073219751 1.69304950626 389.233822894
-12.253472226 89.128482493 41.8753504096 129.136745685
33.9672028753 74.6773117185 -16.2056072831 -112.967672962
58.1292291839 97.6989526237 38.2584199796 -234.879734915
-5.33107826204 -6.51801791066 -37.3554270099 -107.18000259
6.0488297942 -78.7217833247 10.3337286759 2.34483820869
-46.9771195662 -102.052499529 -3.83087989966 -73.6734525096
-230.502829486 -169.401182323 -113.193511763 103.217793213
3.2500970183 -148.437232535 -58.5483154389 63.7559984643
-10.2404757361 -20.3962244955 -61.6794014328 -153.468824876
156.766459044 338.835384435 108.281974814 144.383642589
12.5481128974 227.802274843 66.6176128345 185.542821197
95.2333685392 -21.3112004637 105.195837056 -164.514846133
45.3390529005 9.45586421585 -15.6463653347 -69.0727288848
14.7874272988 21.8556682621 27.102871627 2.39828434843
52.3977614179 -33.4442511199 -36.3386281545 -36.3240367823
-212.145489528 -90.3118399098 -63.4809172026 181.713013701
-34.1384330646 14.4470126475 -20.6696739749 189.466233811
50.5051882602 -69.6350133745 7.48822236287 -360.008283567
15.7805632296 -53.3914226291 -43.7642869263 -73.475532466
112.607269479 -36.2598981225 24.5717240617 253.1200617
-83.959441442 -108.026330918 -14.5396764903 15.1607380786
-10.3856823984 56.6670470488 17.3001429457 -120.184876608
-98.3306383427 9.72435250555 -2.64724557087 404.559485727
32.3162894384 3.90467948609 21.4433182451 -137.702308101
20.1864843801 0.645631887932 25.6521590848 -343.108776499
44.3977812138 10.0562349853 16.1285754556 186.731353555
-19.4994733928 31.142234395 -18.7397132179 -126.765357125
49.2861794482 64.1087486763 -52.2621460936 -105.058412316
8.71642953684 19.1527519924 -39.729265274 164.621341325
-29.8935161615 51.0829533009 20.4142798494 48.9529468967
-18.9466097511 -29.4579673261 11.1942941582 -40.8565966805
70.0880322189 119.148528998 77.3901538933 -301.84965447
38.6462340808 -39.1266416513 3.34860155568 -98.1144005826
-53.4345885426 -88.4621301134 -30.9586481897 141.480957967
-25.8778118421 -76.0883680894 -31.3559041255 -1.34102061344
-21.4404982742 40.958448973 59.6429244504 -618.029968322
95.1896591853 -219.250430007 -10.8516441202 536.75423391
-101.699555147 34.0245053349 -42.9200682432 134.05461457
26.8915171233 204.133861703 11.85919304 17.1643255103
-74.7448733448 -45.8337293138 -37.407479918 58.9299120241
55.215673609 -6.5121420191 43.3235378202 -41.8539790717
24.8165192006 41.1240872924 12.8214308683 48.5610960796
-141.21758273 -57.4053060886 -114.14471344 349.401357035
155.273277179 53.1388141535 95.0597919793 93.5552111789
-63.6595290305 60.4102148615 -42.0871076212 -127.949938294
-0.0237870546784 72.735297448 -5.07514768048 -55.0449387911
48.0167903282 -2.32015237291 34.1557860624 35.8432720145
-10.8815564438 -39.5143745108 35.952802741 -272.761478709
-1.99687210143 -22.3206027673 -16.3164026652 -125.24777179
49.5514646014 -25.4848735273 4.0713701494 178.689874526
-59.3165796736 -4.04538284238 -7.72961635903 86.0062189677
81.4391710905 59.1440478589 12.2804115413 12.6942337062
10.8577365274 -24.4721265205 48.6697465015 -48.3841975024
-47.4024754569 -38.3876112855 14.6901604621 -6.04690835818
-225.255786397 -135.877355703 -60.0716497058 34.4948384184
58.4059234111 -12.5548866711 -26.9899382277 -182.051754447
109.597836844 67.6891536969 34.8732594823 3.06898499194
-113.132939343 131.518510014 -102.109993007 91.0784748469
2.51703068189 15.7788131236 -13.9704891028 132.483403081
-49.4143438335 -78.5432617538 103.519760887 196.829690902
44.2012136195 -62.9399492801 22.579791439 225.706502003
34.7951745114 44.796891566 14.1355986711 -358.56519774
35.5710212968 -171.597333668 -14.522881485 -751.316956227
83.0667986915 7.69494298978 -6.67676469266 169.790333815
-22.5536390019 184.443490603 -9.11211352551 454.415528595
53.4383502199 -136.468838345 -13.8675412111 -189.969906753
-103.347114988 21.9678787672 -55.78643602 -157.800293557
-26.5148115503 -57.6079739423 76.790610426 -74.050821686
87.011655242 76.603633074 -5.20092688869 120.05105298
50.3797780384 155.072217344 9.88449657368 23.2612558424
-88.0779069932 14.093676426 -87.1399238763 117.45847624
271.061475861 27.0133086374 132.275539818 329.391958457
-39.1283985728 50.4081463308 17.8589244244 -149.556280276
-137.971343622 -114.100079292 -84.2230992014 6.4206277493
-60.8379455194 -33.6278941249 -43.3363912803 5.17939495649
-88.7829986731 -23.2935063487 -19.7922014247 -306.450552343
159.242478491 28.4883150117 37.8745234099 132.401669702
-49.1677512838 86.2707493543 -0.201624051061 200.583141731
-2.78905488877 -246.30184391 15.9016822556 -10.5707917906
10.5575429609 -149.440159447 48.4419965869 -125.486863964
-14.0037757631 273.180672402 53.3895697406 19.0936310846
48.1414986819 47.0920637948 -11.8894138221 62.3142935576
40.2694332131 56.4697482885 -17.488222093 174.439884853
-34.9376517858 -13.1804960687 -1.82937382306 -81.9777805971
-165.176186477 -414.249868302 -70.6908000026 147.193899625
-47.4239442718 42.730503747 -25.7126970529 -194.767147803
-24.9485402588 470.716035566 13.5398676195 38.6254573491
69.6144128782 -14.5214637423 12.9152733628 -123.339597409
-64.9660433101 -39.0231437493 -66.5942594569 98.5138959317
53.1732046169 -135.755499607 65.5879052435 -235.121666479
-79.3962104986 -68.7935267135 -61.337278672 48.1703877207
74.4586706605 51.7663914852 44.9803771764 232.402772174
75.1508026166 136.901025707 19.2035663663 -127.19948799
73.2470109795 135.395974692 29.2853803139 -211.201631851
-96.4378462408 -386.781933994 -11.6041004299 -208.041996264
162.604645365 -50.8118739676 35.9163706195 459.541528968
-177.528340427 225.539896871 -31.9366967352 60.6054554277
110.583164049 -61.2589224474 -1.73177365059 -136.093227285
210.846668651 65.58644153 115.637951253 130.454374895
-132.396971786 -262.228793313 -75.7959315988 -63.9156027314
69.4046770476 163.340662805 -54.4362517413 41.5416303082
8.83012268445 351.354645687 -40.4213894954 -13.7447482469
-0.8977895783 -30.3117647927 57.0909221568 109.13713373
-72.9390421438 -122.191110341 -16.358032032 -341.764336607
-80.0039188853 -78.8858473311 -39.0597478126 177.123666983
-64.9305945803 -85.1257592359 -0.139080840182 -303.475698165
-4.16104682711 -96.375150057 7.54652311334 -124.768365961
44.4881056214 37.5815444767 22.494297234 42.8329630313
26.4154544287 25.7027962073 -43.062682537 345.929366684
-120.674123916 19.9363136018 -3.55642029481 -119.473442488
-19.601591693 -152.530617643 -15.1526577486 -429.06591589
-12.3066776814 -119.48864683 25.2626947528 560.469358105
25.3588637443 213.193578067 7.89641121132 -133.876172214
51.7440350864 127.00995765 46.8519797947 23.8635837784
-23.5356262609 -16.4785906738 -6.03727665563 109.446404895
-33.3366334314 -9.08559820412 19.1949186139 -207.427837164
52.0069888422 58.7500243601 42.2853660983 -335.495221822
-41.7950273471 3.95032487129 -8.63536257601 583.027766552
72.2128540017 -38.8789118269 16.1611591664 261.262334297
112.873744448 -103.141840604 45.1762292221 -119.488370438
-145.919497822 -38.2722746295 -110.005974636 160.218019911
-18.0553304299 -31.2490738458 60.7016915893 -33.2769960409
-57.5021791683 7.20900935365 -76.2192806757 -103.041037548
27.6247695293 72.047495305 -16.3289825923 -122.446924643
77.6089722882 124.173362795 11.3850328594 -78.5245900494
93.233953006 -4.70482565965 69.3694945932 -209.716587398
-104.531923374 -423.087546324 -9.11721657914 -7.35893611421
-33.5713515688 187.114328603 -30.4136832892 132.553112028
-57.6301393584 204.584606146 -34.5467710381 -105.54291242
90.0552719519 -57.8690324136 69.3422913776 29.6892138127
63.4368647441 172.949212957 33.223820419 411.57972853
63.2427322017 234.268405271 -34.6593069537 -212.027706629
-146.413907762 -91.5681807387 -48.188495106 -93.3092301139
-64.5873035373 9.92757062872 -46.2140939072 -15.6542266293
-14.8046707027 -27.1214731683 -9.65470381282 -22.1884084387
92.3106700266 -58.0279019471 52.8640643491 67.6003852708
-5.99183466428 -84.9720897216 -17.6819550285 -239.363815623
8.0372751393 -181.947099048 -24.2282883543 395.947454146
-84.8307562881 -171.791369414 -6.96553543727 -236.681615873
-10.6602807582 -61.3922038517 -47.8952614539 -51.1879678805
54.0430176035 56.5438029474 4.80620655618 212.353113471
157.939914114 208.88295075 109.95517271 -44.1500120743
-8.78997323888 61.542037283 -15.9330064718 134.827012966
-21.1183410244 -22.6762072666 -24.8646954709 -77.2264729525
117.863893467 26.8858193888 1.40954211557 -167.111367842
-55.9850466666 -37.7253553015 68.8073454129 13.3087109911
-186.397915107 -132.730730556 -53.0318333395 -10.1047221146
191.272334218 7.81774140561 -20.7786622165 505.275317305
-21.3861960529 82.7590086804 30.2749450446 -503.980083732
3.65194198544 80.3169556826 -20.0807268274 267.870170735
8.11395593205 20.4254120035 39.0925202702 2.95618292837
-91.2324380374 -9.05778619169 6.9163014123 -114.798687133
-50.2761694226 7.16450170343 19.3445656855 -17.2460366462
-102.827417222 -361.777489932 8.84047054157 120.819995835
-8.75147452209 -14.1462892433 12.5810433233 -68.9127077198
52.4811142761 426.892558174 29.556048187 -47.7108999649
-60.4787118782 -46.980253868 11.5137887395 -154.859096184
139.68532556 -64.0728264742 14.7285288057 224.55440621
3.59654713958 128.106085805 -46.1018452452 -360.307525984
-100.254909014 -212.680639946 2.71635873805 122.74075488
160.967953739 97.7876295743 -119.150048138 118.770511307
-42.501726216 205.541467532 -80.576760609 -177.201626645
-136.784524013 -98.1714587388 15.5464733104 -36.7136070887
-24.2479399459 -9.61284999632 44.4385879088 70.9112767999
-21.4315605215 -89.3712597741 17.6025367917 -20.0984778997
20.9950492009 -150.484922606 -21.9479408954 79.8596637237
42.5479569794 19.5228305659 -14.3939791127 -284.376978109
83.6606817669 95.5399892166 63.2538179245 -35.005248696
55.2823173025 75.0864166075 63.4068184177 763.093025442
88.42193232 -31.0167257072 38.2447080005 -370.306612775
-53.8066027384 -36.4292725804 -31.8740141697 78.3028665176
-0.404060906093 -30.8540884533 -69.2471347099 2.16956758663
-81.2195145077 -40.1604948498 -25.5539756264 -71.38839988
33.8271481891 10.5685118154 8.07608048868 -20.5185117515
-77.1320539982 69.153943013 -77.9603233319 -99.4426107694
-11.6498959136 -123.067172112 13.8478228252 -157.571860446
22.5390162046 85.5376134052 23.5130352128 -66.5770330049
25.4628484685 143.873706022 -0.114988109147 396.058232038
17.7437716257 -31.6679512069 25.842403928 232.503472613
-9.00912779844 -253.606863498 20.8148839396 -71.1732640532
-23.4356024241 67.4287909915 -9.02618042209 -123.816815531
20.1795527529 138.110089523 31.7466567651 158.372342791
13.1082391467 67.8030582467 34.6663991898 193.235042867
47.1774673725 -32.1316476736 4.703395625 -346.138234871
-8.41098350505 108.7284957 4.68557548762 197.935038836
34.6299561529 -263.177914821 45.9073784639 -545.550309696
-140.663365187 -42.1778066705 -15.456086205 177.212667142
183.966652805 335.023720449 36.2350299841 -232.701508235
-52.9815486969 -141.399630371 27.1245770789 261.091639044
-42.4795704531 79.5496694246 -56.2383497398 186.706475616
-144.831856189 -84.872431119 -62.1269319503 21.7919439401
-67.6485808793 -61.2471257226 5.60628213196 159.937362254
-21.7912869454 -256.080163234 -13.1038632298 -94.9595486309
-70.4274906222 -96.8191991265 -2.60710968434 -210.379861968
