186.17819533 236.133069718 -309.450255891 114.406941474
-1.27946759844 -333.336658495 36.8335331955 392.019530207
-354.71513566 -205.589415892 -30.9243738848 -49.444062329
-304.22773804 -300.66370865 -193.926232242 -1190.28150393
177.485517356 440.02474888 74.2355194655 -55.8409305506
-291.722076473 -1226.55251036 28.3215512351 412.465656641
172.069133435 334.933236186 -20.8340894642 260.708066411
131.25609918 327.616837902 256.597707865 110.325397853
-162.588510733 -10.6892737574 147.012469842 219.564213701
292.350112937 241.094689377 203.303464528 139.33983309
170.011909255 356.030662723 -139.626282948 -93.9270156694
203.376806226 -203.212476527 117.341504827 -163.139235668
-435.472451606 208.132723081 -130.025363521 151.711725393
-173.233718644 46.1338150576 103.048075079 220.769271144
50.8526977487 135.241093105 68.3396200542 337.553335723
183.026537153 -12.2458704523 77.8847048018 -189.205772533
115.392883804 62.0238569827 -10.6165844957 -867.761113248
248.712865197 -4.09940237151 -117.327494164 13.591843181
-435.047836637 -211.785577113 -191.457625081 -12.7428999649
-245.61968943 -201.876691382 -213.854080329 -11.8704971235
2.80582786887 44.5457730361 23.680693502 264.987320295
121.225775135 67.7183502982 79.9747784618 532.930128707
-412.490086085 -30.8481433568 -167.788809571 -392.964970938
734.590800552 319.776360186 214.361563847 193.80474198
-88.0841744707 -136.732590131 -493.902360143 183.811447637
-521.118026038 -447.652636887 116.446251839 461.380044513
308.866430942 274.066922567 359.332505606 -359.628287601
181.711625719 313.771945396 63.0529445875 -693.105762448
317.171001986 41.8065388693 18.2209551738 -117.31907966
228.654458289 -213.371608415 92.7409414475 11.7601179884
-149.834414267 -74.9576453661 132.38173931 167.220099655
-360.994407762 -258.711220123 16.8502407132 156.008198689
-212.611269556 28.2098493373 -90.2192774953 -155.23350475
-86.3696181541 -103.199820954 -143.368861135 -330.564298386
89.96529126 176.125332998 112.246497504 169.596327287
133.244647977 92.9407539103 -7.08528362609 -4.0759017119
-100.356543974 -102.777945112 -53.4711317253 258.726197641
311.387417439 340.809802442 -54.8044478992 896.192804191
14.0055471803 217.181189212 87.0928049218 187.660116295
-574.254527929 -844.02573659 -619.602067075 -990.653629766
-31.6206570197 77.076116416 841.104073403 -598.785648253
321.933506343 108.896825999 11.4523583486 -33.7941226846
8.12529699459 -185.031672804 -136.223674054 320.087201502
-69.7488939295 412.31649304 -101.138641869 53.6727917894
458.481982698 354.6627854 139.492867747 -185.080948389
-165.303022718 -106.744137148 -54.3524240672 340.177742885
-250.653191743 -296.913846902 -78.1595321797 144.011897833
27.6412526583 113.719907879 -67.6088230365 152.537848155
-249.44898193 -293.718977601 -158.868582677 -81.5410666691
562.534582006 -357.041589936 211.43231364 211.560020046
-201.381727563 138.922470969 -195.767358134 337.946353123
-133.490071934 -34.7598968952 -126.89802914 -764.491438497
108.673492539 86.4432718124 63.1242886063 -56.1368815666
207.620451387 261.962208051 -28.5021585401 96.1190029411
-157.890344506 146.583096509 -67.2555761349 -7.78042229216
-41.5140383858 -100.783207023 338.018979224 -7.82127380018
737.655428416 111.409581369 -216.498016933 324.332513846
-493.5617822 71.7611678628 103.741484643 377.600310765
-539.360260488 -424.54305991 -159.519460972 40.7101259071
-214.302650187 -171.745963113 215.180513 -1233.53645583
177.086649692 151.404994923 26.5390664531 -33.6027795264
-59.829359238 65.2376436693 154.696122012 49.4719875479
4.35404341666 -13.1940563033 25.6123579886 7.88742495292
209.22857866 208.213603682 -241.905443821 174.282180595
245.25703575 -52.1884656254 -87.6869336114 9.44803675958
139.385069886 935.732499197 3.5301659891 162.840401099
-151.308664167 -256.553437762 155.124481617 831.402864605
-131.704768489 -486.532801899 -48.504065714 -297.63817027
-179.246289014 -206.553456285 -93.851124386 449.303599779
21.7503743252 -148.083713558 85.0508471168 207.924871191
-139.667252606 71.806828801 -34.0681275089 -591.048510875
320.366153286 145.158746083 73.5599362372 -590.538820522
66.641618887 -10.7666956173 29.01366416 -345.888768798
-34.4653706974 65.5255059278 -152.706088682 -71.7591719059
65.7042424922 172.516866977 -93.8310697232 -92.5627395659
-103.930774662 -144.173206989 -112.311545319 174.794837513
-375.015451743 -191.654938625 -158.154200889 177.965861063
441.598668187 46.0721012643 246.959524777 203.693782174
94.8001428233 -205.94761169 157.591588163 316.056645654
-93.4925831269 344.973131405 255.917139306 121.840324401
-225.208122526 -72.5016154784 -5.07504223275 -531.599513946
46.2811889864 -27.9128070937 53.6589380893 75.759974638
116.060239957 91.4737816037 -290.416326647 97.5818262261
140.920441363 32.0176168502 -88.1478636145 -33.4613604777
-163.179518746 -119.429537062 103.612064866 73.5699848035
47.0423897747 -154.504582343 76.7596576282 298.565308694
25.733927712 319.161320495 176.844412388 68.6937698353
-119.781941258 -57.0648281401 116.489151778 501.563473948
31.6896259324 76.4840062817 -199.609627855 260.557874781
-7.27640052 -169.533954873 -168.658551361 -1267.939705
-130.68509522 -54.9427815552 75.0752801807 -198.885108104
46.1945894215 -45.0433938999 -5.99345377596 33.9410431693
196.102651892 73.6320726161 97.324657405 -62.187017482
-188.840650916 -76.7449585113 -89.592123827 -185.532645274
35.4418411775 235.722086663 -289.619590245 -184.352081291
-146.986241756 460.421694 -579.753699711 501.845903761
-72.3063256762 -856.678119651 486.950059299 866.993404943
192.184477774 -457.829632573 349.897838025 -458.024443642
152.142172186 538.983519479 -68.5905838086 -357.997287922
248.756161567 156.366794595 28.5896336665 103.331404486
-115.646510327 -52.316780942 -172.395637942 53.5186587413
-29.7342101376 248.097701791 461.268987021 -276.839414844
232.180633948 156.423516694 -42.188097362 -194.010738816
186.194043065 -401.827554969 145.143244663 844.254757702
-483.414947692 -98.8855741028 -95.9416072702 764.346216345
-19.4218253771 194.818923901 -65.5950549605 -1354.38413606
130.607096027 179.688748384 -241.311651252 -9.67667794715
24.1471321796 220.464142684 276.897857165 384.287226171
-101.724151616 -63.9455310244 -20.6417183817 268.288246585
-397.909740793 -479.962587049 -236.225162493 -240.672514027
57.2354077777 -222.288788584 -82.97191985 -745.322710509
-240.383806382 100.82455749 -110.747400137 -136.272847541
32.5019083388 167.100987516 -2.36650513479 54.4623422073
233.563718767 214.916790151 75.4569429659 435.773904121
198.937118911 50.8325342614 38.1181431001 394.644777845
146.687807054 -17.326376125 -89.7308724316 579.757821613
-98.3378296858 24.7108399729 215.003810984 33.2220215958
-193.93257525 -249.926430426 24.9934511492 -48.5351764611
305.148664141 -105.256394837 107.651498193 -568.072861365
-30.3576894316 496.015447967 -140.896346241 18.0519558578
217.581192797 200.586823327 -609.794973231 374.832189237
-201.238689099 -297.657706927 1034.38957611 -760.165901057
-59.0170893859 -371.450565669 -6.27950735735 -33.1001218032
91.6780850544 52.3921219588 -92.7333777648 273.798805584
-210.501131202 26.5005523934 -284.205853126 98.8527941943
303.008859398 340.175400839 251.350986096 -390.416143816
-70.2071416733 -109.365252563 -94.6993934736 -187.260705129
-474.357219499 -0.975190900527 -131.318994065 -213.065365677
410.949331978 444.753943198 -119.713648357 88.2745505719
-8.80362243523 -47.0620789035 -147.659978581 380.918131303
-38.7891025051 -626.040808299 101.598903195 396.86883393
155.133508669 203.224588154 -300.28547304 28.0603040774
-466.238398999 -271.276278139 36.7484795611 -220.004200024
66.584371176 -46.00062605 196.724255455 -268.528509723
137.060016032 -79.2758248939 66.5252483727 -184.037106966
-221.884667773 -221.428007103 87.4295188743 87.023863198
45.8849129085 167.623563709 -307.485433542 298.721888667
68.3040122535 26.6109958068 54.8271466568 878.246721327
-113.899667296 -275.580088598 394.447147441 -949.003805467
-31.3452415825 308.24200015 7.7629511618 -106.000846207
36.1291180879 135.464405161 -90.5806756769 159.286178442
46.5117324694 8.10818689252 -66.8440259688 240.003237529
-47.2615937154 -56.8664463514 -111.105126264 -260.562592974
108.819757883 37.4404805631 -81.5196753155 -403.075396682
114.824010591 255.613876552 173.65690592 86.5858130428
-348.418418651 3.46303749189 -205.562536244 106.743157457
261.716893685 247.749337147 92.7751314334 158.349889175
279.797073251 -36.8921889125 67.0645138752 475.802407071
73.0165248958 -222.96017791 -440.329611479 -274.442845982
-374.256805801 70.500512709 433.726009962 0.40488321928
216.840429509 -168.823504228 349.721720606 51.315858276
-121.945726058 -106.763767837 -88.6983809263 -123.509257894
110.98698416 60.3373528954 26.7540593027 646.753501876
-47.6133674234 4.91401362941 -37.8768458438 -394.682348084
177.196446781 139.964126052 64.3964793533 -80.1237626473
-133.070766914 -112.683725446 -267.614917526 -82.2777803427
308.241480787 145.733086719 -68.7326783625 -41.2462929322
-18.7856420842 437.174190704 -493.540390808 -44.3609890053
-158.000077385 -649.433508649 449.282047297 -104.827935892
-193.637060905 -368.055369448 189.254006656 -317.527362558
-233.980054882 221.958581904 -50.8603125689 3.87836730194
-0.581541066629 131.090867556 96.9063767858 282.700930318
295.590091564 205.296235523 52.9401107611 273.95141805
-108.032418331 -43.4343748666 -39.89991702 -161.626830881
31.8375250934 -347.609912574 -96.2035649879 727.449810707
588.392412685 -63.0378045955 245.601312994 1001.52336695
-172.599972358 171.838197377 -197.160574199 -1713.03646615
-543.794061349 261.599512132 -235.9394884 -744.521298268
122.649742348 1.82344802604 -42.0197195824 -104.26468986
-86.8294938666 60.9683793219 52.5094866824 105.914669439
-190.464001399 -98.6843890054 145.138613418 244.671480246
-70.306877112 -189.30119197 19.4744248649 -34.2987407645
41.7883613163 52.1947789656 94.1458966929 155.549915192
15.4032690908 38.4318554016 -52.0233167535 198.157955513
115.439588861 -92.3290367018 -72.6730894437 235.180302785
33.7454505494 237.494064821 89.3308723739 897.417022756
188.608395915 216.829785043 -236.148932054 10.0266561131
390.650237932 -100.930711781 305.172540274 -540.435210757
-400.476266956 -374.805938654 -429.550601558 -135.972190919
-101.614046983 32.5682148376 21.7534350029 -158.807658829
63.8916011452 123.241346383 -147.091551431 -144.00938515
177.367882677 160.475118022 442.188583995 -44.9558427119
-323.172843849 -1081.79396055 357.997104397 441.093921055
-103.31716149 312.679533046 -68.122994652 144.072997136
137.453678679 251.984185734 -73.9274771059 -716.001261748
11.0602354332 68.2128806474 15.9205033513 18.7043889238
183.190312946 223.202040771 58.1519292619 -14.4759626202
79.5466847886 316.081923736 -255.953489438 872.844349364
-371.091480838 -56.6683148798 -194.999026819 -830.749620453
-77.6212713515 26.2361709536 47.6027972663 -518.478588343
425.419975214 125.58984345 29.2447090555 -22.4914249085
-117.095671515 -93.6313913963 -87.5057084099 250.053813435
-98.2992908484 -194.187477492 -98.5234412557 424.044924261
550.304519461 402.21573827 58.5498385754 999.787069749
-101.437582353 -1.70095819469 299.405749682 -1476.17657
-348.795944332 -689.134979095 -478.941747367 -107.401495607
-173.354597252 37.428983367 378.623268692 323.69936107
-76.6287855296 143.664557216 103.44438662 329.904183194
137.792694058 51.230521672 -68.8558273657 -453.198384775
-165.300468392 80.0348229245 -207.560192882 -68.6957350251
258.833589428 -564.147910469 122.407086935 218.122991569
-534.138093142 108.463043819 -44.3750961402 57.6051220459
82.2800966681 -179.412108307 -100.081700429 70.9877503691
241.160961569 151.735742243 125.880338635 163.215903192
220.919326977 54.9013106598 163.707213223 46.2741517
272.379178028 762.87767449 67.4107087034 179.605166212
121.59059848 92.0386594489 -266.874591345 200.418587683
-138.730270192 -360.742247769 133.299222773 -50.758427534
-152.752969735 -205.19538626 10.8619359289 -116.365374074
34.8611608887 66.0106563415 54.7213611909 298.479866894
-37.9477665096 69.6434562674 71.3814143427 -112.130988953
-45.2591351687 29.3614857124 -120.455914933 -355.397140351
170.071671429 702.482053581 -339.35934923 -354.452330209
-89.1493660621 -407.675207375 265.796742743 992.464037534
-243.281692161 -436.341833744 93.9496565403 462.429075642
-42.7818952652 -199.115545345 -24.8717425295 -1344.26067219
114.379322953 -3.6527411642 59.3319831273 -431.679337673
-36.4237398502 -39.3589080401 -23.0363859122 -43.9760913677
33.9410632689 -67.2030074364 -130.52320019 25.8982174541
38.4107411749 104.4035762 345.273572386 14.7801751163
-339.807727006 -56.8854028252 -139.148739991 135.083903242
-3.08366178707 176.62941308 -16.4173617289 73.6321122998
304.646075166 483.435468399 -14.1094970069 318.559433935
193.343418069 -29.5339892742 -112.998041171 -125.646511535
10.5131525819 183.684042282 9.5225772709 216.588127092
53.4527775869 -430.02775889 -87.5305390384 161.909913491
-167.639214734 74.584644853 -16.5773056565 -51.0151552704
-62.6908837244 -52.7658197882 -159.428662535 -49.6776294275
-83.438647648 -73.5831432601 92.303688588 -308.307118423
41.0525688302 -144.714143148 66.5400856631 -43.5547248031
20.8840199574 42.7561261453 -91.3932845467 94.3612087895
-0.349179221181 73.5645737099 -43.5344275335 374.20102283
65.5823438916 177.480387395 -180.382413409 64.632187213
78.9562832232 162.905959457 -76.5231452265 -52.2188319751
88.3199027731 70.2759167207 -61.3559027331 248.879923288
342.935316166 -688.615090365 887.859885102 -347.909736035
-482.728349144 -254.056297292 -34.3789452879 -55.9977572863
-135.203816119 165.417290815 -157.95550819 -875.695243734
174.942129202 160.151050731 -21.4799117527 85.268820761
300.612600484 89.6008686102 -121.884601706 184.16838857
-131.611552752 -123.407063732 -53.9250863817 243.485761309
-403.614807692 82.4296221129 18.7259013713 208.410215537
209.493945207 212.947777282 418.955346036 296.063614622
-9.47981224291 -224.907854816 -54.0617049796 527.497415592
-90.0982071583 165.392434334 -213.022210653 -212.2365747
-324.837022235 1.17868028442 -166.494610679 -688.453255339
144.206987939 232.854199872 -236.567292278 279.940037993
230.862357386 189.040935034 401.417785886 -284.26088301
-444.205832254 -618.875217233 -268.910867904 -87.6170177047
283.733399817 200.660755165 322.720323064 240.741492451
-26.8162913179 86.3677257601 -114.611761875 362.408103989
166.031406655 214.750975984 152.872477727 -721.206913639
64.0735165963 -92.0543423273 -97.2993719067 -157.932938408
-144.29211337 -358.57853309 -177.514131536 97.0577854924
-34.94132678 49.2980427314 -547.533323913 343.760182939
-72.984306066 25.8912308434 748.605522474 148.960019983
14.2880373763 20.3486331916 -111.159962968 357.404650184
-169.459606502 -78.7103373202 -231.897182728 -205.547319431
-186.295615706 -29.3456727703 153.594273837 -413.168834051
306.02398799 13.4192869122 5.34981886417 -239.064470335
97.4056771048 71.8176451297 -50.1668620799 182.979571738
232.215946118 44.9463471124 65.7806038887 187.417241755
73.9941884137 -55.3203732178 25.5154718976 296.429247135
324.472345777 240.854888623 123.020496884 -213.978530035
-114.159025065 -22.704602154 -54.5297832233 -59.7646404937
23.9380076041 -121.021378055 -22.088500414 196.417971312
-256.473001528 42.1934657575 -51.2721474268 -223.551429423
122.26942786 550.89661127 -249.668610973 -141.728198498
-447.276340962 -614.738138928 -282.106262482 -182.952218908
288.078557378 72.0340152291 743.305423667 318.536581525
34.0171300272 -37.4609428015 113.277241937 414.059388978
-195.006467568 -431.954720626 -121.5916651 -466.536915418
-165.868202131 325.775484911 -520.094014288 138.37595336
-169.173529158 98.7028874123 -72.5012501695 385.065538359
325.839749081 -110.20820092 434.841223593 -882.853210274
-389.541358514 -461.927510703 -74.8303927557 236.478233871
170.492947643 245.098160494 -40.9798860475 16.7735778189
41.9175099695 18.9088874751 -390.154565867 125.61626681
-177.52257406 -131.065056632 101.416186037 -106.694842304
431.42464598 340.665543876 396.953377405 151.115338192
-8.49076161255 -21.226896315 188.573856726 -324.955373082
-44.9791995523 -29.6588224823 -255.664882264 638.719298533
364.284890964 439.508889268 -55.5056332445 178.685844754
220.048373489 -319.357768619 313.907552652 -853.839775199
-454.440717247 136.164285608 -346.16118705 323.034385416
-117.062497363 31.3635200087 78.183778702 233.473809583
86.289027131 172.554963868 72.7781600621 -104.179563487
-11.2117157702 12.0057729697 86.4456726133 -225.422457482
29.6665939449 -139.918933105 47.7620269141 -74.6989840695
-251.9364258 -263.297635099 -19.1146084547 -28.3346486472
55.3442451438 -65.3436945224 28.7709039085 160.258315372
103.31301052 165.965064229 -94.0966487128 377.324461042
-97.384959826 23.1790638832 -497.074653652 130.369345046
-3.93367825795 -74.770899728 233.030021284 302.760608765
259.665573742 60.3928398549 295.564682494 -190.237152465
-31.3644784602 -97.2545884435 -171.359373453 -15.7840777315
-194.362074133 -38.3572871002 -115.226026587 103.564465878
-137.949929739 -139.416129564 -89.4901831152 -490.555887043
-341.66861075 -81.4653368759 127.683742767 92.4247687365
661.265458202 122.057974773 315.452882106 -139.409353523
-153.381771605 301.566201881 -307.824134126 201.449967332
-444.943684674 -49.0272897266 -199.88426195 272.898638305
522.560712761 -374.343436418 332.290524794 -752.740349076
-98.8129966287 -115.741907906 -47.3972632998 -267.689488501
-43.964480806 202.749204272 -5.77689726035 8.49976231942
243.256336646 256.929462274 12.1107232642 92.1213314561
105.543841584 125.15047931 -69.0170903541 -272.470648084
-256.281076883 -58.1876896037 188.266896111 213.292870174
305.509593544 70.9133972449 292.419403823 58.0347013491
17.373033759 131.901526412 -40.8894399324 177.660191317
-367.301705447 -383.096290689 -630.925607325 56.8345898765
224.598022888 63.0359246404 -14.6145776325 109.115082884
-347.242117335 -80.5873169935 59.5478028463 429.238807638
128.722701182 24.224562052 331.449150727 -8.01637192214
21.2943294894 -196.522763442 136.899537967 -75.9739080436
-49.9562980029 -56.8764763995 -326.00151152 -325.703466342
-171.355393581 93.770634113 119.58827325 107.965239598
627.462557362 406.858472692 212.065822098 -124.888033658
18.1782984436 71.6417146333 -53.2491057532 -172.994410793
-656.992432254 -319.757690869 -118.107101843 -159.259806236
351.163363416 -42.4893995515 24.3695832787 -38.3262892934
-106.712668105 -350.813159686 -224.126260762 244.591514418
33.0068448053 392.268013563 -35.8295696879 108.106952437
145.203017839 180.737716967 388.120161237 171.620399419
-123.670572186 -296.194378537 -80.911673169 313.335142119
-1.83359648217 109.310130465 -54.9530585374 554.851300523
222.26301663 465.784622428 -125.528596602 -385.158130326
-325.529952615 -19.2702014977 -75.5287292657 -457.711851756
161.979218892 56.3574764728 -82.4515172017 -187.318091346
543.497921444 385.339008057 47.0630644411 -28.6839529091
-307.910099267 -797.885197944 212.304917566 -56.2423009091
-323.712687857 4.71502377927 -38.9660913445 355.321186191
-322.240398824 -50.5649816188 30.1513295969 -83.5217671762
124.06829664 -65.9253256229 64.9858615179 -641.376726956
63.8597133054 73.2304841641 55.2933631366 -5.91435378827
-141.985476149 -45.0614057934 23.8936876777 138.257145445
88.6611962091 90.0966461343 -168.146431397 408.74130863
146.529912171 152.399459984 20.3687555 -38.4783402938
140.456825932 -73.2969235832 48.3400198129 -203.129643655
-383.447842538 -595.810362011 -162.194212371 87.6052655997
324.387739563 -118.487366698 -151.940238292 -241.208127816
94.2023281849 470.270931774 -13.7886541048 474.680052551
79.674650555 57.1338409829 231.147987116 -252.962480855
-147.959155093 -436.817649765 44.8362873146 103.607123124
-207.327662275 679.149400089 -233.084885076 0.522788257895
-549.76527304 77.6724982803 116.043896598 161.161209778
720.394527378 -126.430990892 196.284835812 212.210423953
97.2364191313 95.7034276308 -73.4655645235 -468.437456568
187.478254463 183.440961857 -175.228193547 105.498675915
-353.302649756 -238.569803141 -34.9194749373 23.9639153168
-135.877214717 -331.122965257 97.9466039065 35.4318914718
-100.046848032 -120.2454959 44.2532622601 287.162038107
33.428441091 -8.03481528286 185.315475642 -220.707582797
114.512385026 -87.2693279832 -53.0991179346 -168.263627263
-25.7704186567 374.251042214 -226.816244943 72.0976598187
-82.0770100508 280.554701962 42.4712957876 49.8582060304
558.193287403 195.122064202 147.585638635 142.70533268
-369.761729328 -131.234017762 -146.437520475 116.821522418
66.7792118536 -146.161190809 394.543507181 29.220575578
13.8860428602 43.6333586083 -13.6311254189 -351.373798704
-293.547484949 -321.097879439 -253.838059543 -379.501050435
31.4014759392 -116.187050944 -181.766407648 86.8195816101
-84.0687515395 -51.0331998011 190.513415421 325.65544544
101.599802141 -104.118386638 -56.0525131341 567.616210293
259.655992202 319.52917352 -178.803544708 -589.759957469
71.9588453865 2.83409284134 186.126448609 -33.3007596523
117.956884172 276.828703135 66.3522815697 286.119144346
-40.2212634935 187.814398617 -12.8149506527 -601.300582635
243.418158937 222.818031159 -203.443086083 241.616708071
-179.190608473 -193.697745872 -179.083413804 -141.238383998
-88.8286771528 -107.481634637 169.773757022 -114.740644978
1.38631150207 -8.74201503717 38.4490074141 350.462627058
-142.413980913 -316.041275331 30.3404091773 -497.140363048
-144.942810978 -72.570149366 -22.6832846941 42.4392521136
-76.5569011651 -160.501237981 0.242776393498 97.4853030075
66.3866385991 -16.8616048641 91.7851792357 239.834089419
164.527833513 60.2853089437 142.551181793 350.991633427
113.800525459 -145.220699037 0.224824621572 -173.199526664
-473.535795436 -204.844293701 -199.88647292 -173.693816408
188.096961196 364.029626935 -209.001303946 -212.514708619
-10.9257925428 89.5376130331 225.10483964 266.542260986
-241.348043555 -152.294950477 106.350322716 447.994078533
-18.7405908291 54.1016279537 -160.986505461 -105.528071717
147.383638493 68.1443922788 64.5975313633 -316.21620325
168.768449976 -463.132594157 -50.0525252968 133.418220291
112.250441826 446.21005682 257.606884374 148.818260766
-82.003909094 -335.268974989 -149.32238276 -313.876330729
114.343849533 519.264492313 -210.489939046 315.314643511
-214.786766661 123.853218441 446.113384067 -92.0031510415
-87.4052701817 -119.088107679 -284.161985069 -456.780160448
-268.8805544 -168.060060578 -13.6057015821 164.136288463
635.713096091 189.344600194 348.627649829 220.458979889
185.508205869 -7.38156710522 62.9744074936 64.8989985652
-537.01535869 43.0394539644 -120.298937155 798.074481757
-17.4739875548 -213.238235409 72.2463037761 -557.596634583
49.1421224251 -186.894161085 -97.4865089357 -796.446680182
35.3356395322 3.97142022043 -171.892496031 187.334056609
115.108735774 33.7238156095 -185.403682257 142.749465002
277.868864406 298.911280415 135.753787088 -157.128703684
-20.0694971083 53.7963094456 -252.289409754 412.54334202
-251.748350609 374.483157008 -184.972541127 -24.6594005976
109.557313505 -408.144708949 233.673896649 -194.025354204
-46.5603187014 -91.6941087944 78.5712483877 -174.688638392
-32.5109053851 -284.211977033 -97.385311844 -132.171745071
19.5347215532 60.7591076507 42.6940985547 -53.9366010121
66.8908989242 539.94246726 83.0520818432 57.1906488719
-26.4920048282 -129.461849917 51.7305674851 186.427275418
-117.736662337 -9.56537149612 -65.233798676 758.886509217
6.43821577568 -1.46412501565 -165.546078591 47.3110564595
425.179665273 836.418972666 -222.738274076 -904.993030831
-351.129477034 -788.96770707 242.366408914 -9.82821877295
-102.5969883 -220.149357249 612.44662046 148.601664513
-136.024237798 -389.207451033 -108.69673692 -30.9040898432
-140.315221475 207.514310513 -128.424507916 173.285991745
411.794945326 -24.3793400392 112.258944005 532.657881172
-90.6891038567 -24.9244623771 52.0610192651 -1145.9861199
-88.8639244334 -68.3605673656 -32.0479774877 -66.5748538429
24.6332203563 78.2135471949 65.566909282 408.907501053
-62.3204106688 88.4640313199 -104.717744907 158.873195685
502.796675233 451.705139862 -300.807225242 136.560004046
-168.367069635 58.1680512511 48.0424471717 69.6649807412
-81.5165932599 -309.692175811 -283.4835357 16.0192649947
40.8515469307 -83.3433737447 246.258666974 113.444780829
-86.7348683107 101.518420875 136.119659606 27.6224266937
-48.205838964 -169.274406483 140.519946376 -130.516383898
-172.530067907 -95.5589956162 -20.7700832133 2.52238189496
-36.0638939723 210.69899158 -251.678847408 183.361782691
117.058853027 631.380032808 -543.228088832 73.3075994805
34.0263792117 -190.818630618 466.601962972 -164.301507344
-220.249663326 -998.899252558 212.941105357 24.5450756723
103.829872208 211.042827658 -107.174250532 -367.048153992
111.045624532 123.675783434 55.5370890808 -156.26516607
213.376674579 308.774450772 110.590848847 90.8103856838
163.95497276 -46.408721778 -58.5844428358 405.087611623
-760.507930459 -266.941986506 -272.865065656 330.470667476
304.903035195 -5.02879070645 237.065977469 -764.481074619
171.56630313 32.4138442744 73.6269213231 169.172839324
-97.9867978163 116.994774727 -132.890749604 324.330627357
-230.730342682 78.2405346819 -254.381604751 -41.8824327617
404.726245449 165.814104997 93.0168994739 -82.0030293363
-2.55635386634 -221.354697058 145.853400447 -73.3005390765
-388.861509494 -93.3427869026 27.0462184098 83.9020515783
363.569990117 50.4246986264 37.720101555 -316.414768425
291.302094541 248.400523822 440.938430906 -461.032888887
241.587380283 52.5014343605 61.9149114559 113.349267146
92.3004489822 357.102271494 -833.926978627 167.331982688
-363.823635222 -350.867302545 259.091802442 320.247286111
-408.987463492 -845.044399578 203.647248002 -129.847697427
-3.11980491306 -0.702234161381 106.395115852 -386.675354412
134.656007035 577.271987183 68.6762617218 200.175884945
45.0467655913 179.776317686 -6.10379166924 253.55968979
-313.41820939 -102.222664654 -254.623825398 471.807712534
-8.61931135807 -58.6788145205 215.565254638 -120.669835123
-193.063382871 -103.062708804 -270.510889775 -141.952598811
265.49762616 220.394035129 -44.0520188738 -185.909664281
105.021547764 18.783222185 -53.6421128997 79.1337434024
185.878951875 150.814822087 -45.7895017817 127.157165416
-286.573191141 -159.13824077 -158.500431612 -272.061704307
-150.668165437 -264.313247887 -74.220723874 0.928884743911
377.511430633 63.8697637487 -39.7534789353 82.5145565507
92.2957714746 302.213942256 -31.5489592292 -60.6707626019
-192.30504086 -19.0140210211 -113.62092718 241.671066257
189.319544248 1.21313949768 259.398123059 -52.8236037606
-129.39601734 25.3032840506 143.292268327 -274.842700415
37.2847578225 -27.9130956249 14.0534451899 124.706256697
-381.46682378 -259.379421859 356.722587353 131.502273847
305.358222841 -29.8644442517 162.873838046 20.5889936695
93.1877977841 72.5474786303 72.8560534859 -364.738846049
-103.924382439 62.3234575358 24.000411106 -28.9334723492
-210.352507458 -127.68204439 -401.108657452 360.637494585
504.946200176 467.19505943 94.4220953578 -55.426532137
13.5888108665 -495.381598924 -197.038892039 -176.196446009
-395.600462867 17.4756231698 -113.999866165 162.19868203
220.774391919 263.828110834 119.579695308 -261.956883739
-16.7447834788 -256.963284709 70.9857686678 -45.3594505451
-157.555554261 -172.237866779 -55.1879093652 103.247378224
-98.739541056 -60.5056968414 51.569470035 -18.1081228279
-175.348999923 -143.433835481 -80.904636963 11.7747053199
113.339575083 285.849739659 14.4510890456 331.632224349
381.68280638 208.46030323 -64.006896916 -434.218346897
-29.3164341408 714.53817242 -676.768949387 220.019318214
245.917145118 -312.890048466 932.80933283 100.422407693
-469.796820392 -306.463374191 -61.529833407 340.454338863
-182.501356725 -476.194890931 -20.8938452042 33.2599886724
-92.5229518175 -105.023789635 150.696575253 -65.7337375711
61.8415854308 341.070575009 85.3221684243 -383.41717791
248.926896988 361.810852786 31.7568513419 218.829653232
-64.5095575187 -24.5501882571 -142.553114652 366.810908921
84.9504945666 -0.652644997425 -134.288204693 -161.88656219
-80.1025178879 -612.912354002 48.2351665656 321.142385528
156.081241328 383.909039584 -163.891655004 -222.473904453
-57.0531880147 139.102657652 -185.687228205 -762.069367973
-92.9616900722 -157.978704961 -84.4104810217 175.73789398
119.357252694 -30.9778336577 97.299283011 -163.208996257
337.061210626 362.163113306 -251.011960556 -437.548358827
-206.61561047 -165.413098723 -183.432386755 17.7561733693
-66.1374726803 -184.428923352 571.04409814 105.148085915
109.787979485 138.033997662 41.2044144546 566.548530259
-196.236807475 -54.7181736139 -357.227353188 -241.770276009
250.578304952 -340.841559998 738.734531661 170.093502172
-122.163691419 -6.91318326065 -15.8237581579 44.2910593099
-487.16568369 -22.4136019591 -84.7832476777 178.019841744
-278.748949908 277.575028173 -51.708476551 313.35310061
195.677927328 -27.7004937805 155.541477144 -169.185558229
224.950621778 -449.064779452 107.82738407 -101.629430821
-39.6410209275 539.7574593 -500.568665212 -13.4825998197
-59.4716526132 280.461473255 3.3828604459 -139.264315529
316.688156371 -30.6089430549 -34.3150915198 -110.278658479
-25.0596768219 -24.5937296553 -485.884724338 -23.4793942111
115.381629466 -38.6550634567 615.035519092 142.37552978
133.129038811 -139.74919683 15.3481221096 -188.74894886
40.5941718493 115.935238749 140.769982477 37.9325987236
-169.619011041 -49.2679112101 -318.581257427 -31.069325415
-110.426422433 -306.738205219 -296.585200344 948.730133179
-47.1164943473 161.541998024 468.363055901 -853.046915644
126.586722611 -133.041327091 18.6866847144 222.320841166
43.1028716212 69.9447925906 -39.0092079671 -166.149054661
25.6282455895 -25.5542425083 -66.4109939181 509.623239201
-99.5187821443 72.5343513008 80.02528827 -856.811842597
51.1240049212 -530.823303732 117.012184942 -52.1695565908
-184.210550122 579.080052031 -43.689085111 -77.5512440392
168.222759908 298.657003974 -165.571693945 716.118233274
-8.73245947152 -89.0825894506 -157.699155345 174.149196427
79.4242060977 -23.0249334072 -16.5440965734 -513.017283451
-78.1680269487 86.3717917281 92.037810491 -21.2600417914
-99.7752946479 -49.8041286847 1.58169630545 81.8630087645
-253.453896213 -182.596434257 -27.5556352389 242.701671298
7.847398824 -253.296484355 52.4232753312 -214.743916937
194.547659109 77.6078876957 -75.5397880686 -291.806636558
232.206550501 96.9849368822 -463.069306584 187.656519846
371.385729514 353.552806675 65.0219789895 -28.7250165708
-165.070241891 37.5296050172 517.184159223 239.222815079
-260.162764481 -273.448188111 9.67780938934 164.304574486
28.9427517524 12.2029600119 -246.82281394 364.853619916
-382.555306988 -388.738953961 224.972536494 197.561482362
25.1919294187 215.838407835 117.633421855 -687.806599786
-15.3720819509 -367.710503223 137.780048915 -82.2381525125
-42.8194249602 628.348674595 38.2778939635 181.216542281
243.8111217 -191.630761115 170.27854609 -291.46041319
12.7193716759 -110.700266769 -120.848353151 -187.712477657
64.0386290024 -284.626654372 -201.783922257 -81.7591962429
-110.312346795 407.564496022 -278.453832479 48.0106866992
176.246546538 210.988406086 320.504955453 -74.8567347229
21.2528166401 0.397181825597 127.100161037 163.035585604
-345.128964661 -241.647664189 -172.391957387 -206.871857193
249.434577036 -84.8883182665 -216.285335799 74.251018509
101.196369429 -305.322200544 170.994451433 191.588816243
146.799574849 436.02512758 -227.556972177 223.223649216
-160.37762115 20.5758583062 -139.62314749 14.6376819273
-168.015443108 -80.0256716575 -9.34658090812 224.555605263
-82.0727322243 -7.39766262466 261.842913408 550.205056357
48.1302026387 -159.420994162 264.776389261 167.347018606
-147.408330565 -118.245677867 53.137825129 -1043.39069341
328.372793274 488.659969672 127.295784053 -331.741491117
-101.778251794 129.539710762 -89.6271306415 299.244948685
-245.321246357 34.4179717549 -167.210326176 149.261357599
450.981093807 -391.66929932 91.3588703727 152.37497781
150.550978061 82.6660724685 -17.2147050604 -332.051918961
-151.627316037 -221.566196236 -246.817305051 -354.850951905
185.6095618 137.711720667 -259.579639581 164.318660663
51.4284284935 -162.627154146 -162.835339185 256.436145664
-632.612997601 -95.0288429306 204.108768596 -6.39266951553
-91.2429835912 65.6935748746 261.518024657 269.820537329
56.7233931978 89.6113648171 101.415460714 -389.716813726
106.759699937 225.989153687 -67.5786354459 163.781854225
-50.4299450325 -31.0158486802 -254.606207595 -224.07648683
-288.201087606 -188.503051705 190.17444077 282.507210908
190.994150663 120.671513635 271.4226484 -276.190768105
-59.8091996397 -87.8892889847 -597.248330845 8.13398073082
331.547282385 251.415753207 514.245476599 211.672050333
92.8586446926 -149.656309086 0.649991987878 800.926988846
-233.978667026 122.388221208 -78.4184652572 -202.862956716
221.08706221 304.841122595 24.0525305226 -614.463364869
155.76821256 -146.204558689 98.0131539745 -134.478266445
-194.417991914 -359.00365574 -94.641314121 -230.914502292
20.7199111497 39.3739004095 -58.6362292205 91.4748485397
-108.235709878 -132.491938539 -88.5137579725 27.810489183
-190.922142258 18.0722061245 -185.013375025 -85.5310126668
560.145784082 509.570181452 256.762818166 159.874843975
189.038019383 -259.600021522 -203.391017101 834.134934714
-797.224511384 159.497727608 -84.0917229994 -212.896708374
355.593765883 328.09738882 166.692875442 -490.772928492
81.2337531964 -146.647225096 242.45965767 -213.772168285
-131.295441878 -403.085832988 -0.50998636584 362.452657978
-95.717109924 -176.196895573 77.3676740636 -417.677550455
107.826651192 103.79840581 -69.2469952223 -117.655659688
29.4416155699 47.0763046868 -115.329488326 52.1639491685
-39.5777887023 -75.1935457076 -724.610632361 382.03582451
-29.3590301403 -95.8739441062 -45.6554293657 246.662211048
42.7928766236 344.112941284 457.451497266 -409.38633969
112.164034537 -121.388879657 340.243013049 53.0149912789
-166.154125719 146.524368816 -6.99935048391 129.854444429
343.497369528 324.016696203 111.672088032 244.052975816
-376.539481895 -215.345603403 -422.170575201 -91.1813874861
-324.076400288 -488.634139143 457.563224006 -460.296867745
191.973230092 -146.430834641 230.011858175 -269.454265111
96.05352275 143.006491405 -31.3733478453 -85.826207683
-78.4560869935 -332.40611853 -261.406972303 642.173809823
111.708961839 119.069383393 -19.7233928344 211.338027773
174.373567794 481.293848701 -49.1820037834 265.18299818
-243.150915588 -564.364195349 -115.485646804 -304.805346214
138.258408704 345.797294688 156.219699459 -273.840023401
46.2739337945 149.918493609 -103.709780821 -203.183927847
381.70680464 326.401077895 72.7437084564 347.55138955
-190.897148087 -54.5202599067 10.139044145 -428.033208824
-149.700112659 -199.891281039 -204.810208564 -296.788929048
-71.1643779539 -492.207506736 -430.973287599 156.406753394
74.5858522174 370.911271764 310.860911752 246.230270508
-55.2665813384 -32.4569857128 134.166177286 134.841501769
-166.464337929 22.9222102601 -64.4602349774 185.602672227
-15.1283657331 -109.512743389 215.849637074 142.166018277
169.041817788 260.281636364 143.584896308 247.923411114
29.1714988716 -74.7602006382 81.3533498505 -189.482016522
13.0434333555 15.742491165 43.4767766144 -159.1239238
56.6695956196 -48.6130193141 -12.6582914318 174.806422759
-26.5573347669 189.748355608 -208.60460076 562.545110516
-17.5873470969 -92.6662833036 -48.1594147328 -321.905955855
-81.7506302941 -108.24225949 -45.3832240909 -331.689068368
115.773921348 153.276298076 -173.263819349 583.752205787
-335.54635836 188.507225705 -197.548398303 -397.710131221
47.4322382519 -329.657442199 310.503225096 -939.846797951
152.454577899 14.9768548268 -186.109559213 -25.2862896744
-55.440386622 -280.629925605 426.1066765 279.592413095
197.656692023 714.760884494 40.7675600565 -214.505650587
-360.695841794 -101.572548942 -154.817369994 153.919704286
84.8036408452 -381.083915262 -74.6210569241 -70.0237300995
-53.1677556448 -109.709542511 51.4443628343 573.244529281
-86.9568524686 -457.97635588 -240.96075227 -0.115929342949
89.8068307922 367.338012011 88.0675242263 -350.523974647
31.5353838394 257.878033457 39.7615939715 -56.2287750728
237.786021766 402.476549107 -433.693854392 457.304311398
-199.783270714 -242.004903328 264.131966788 -173.678891586
-17.3213688444 217.239450555 150.395065614 323.225295983
721.58644139 -1.91896028371 -27.162306857 -103.706698156
-304.168975968 -301.06920139 -17.4121794403 -832.814932095
-325.548481933 -249.339372337 54.4684926888 446.284913515
-54.9377013267 6.62006251029 280.487891305 133.112197071
-36.9408470052 0.999974767079 61.3355453834 319.482876132
13.9991112467 -196.541798019 -71.137912027 -152.025620142
-13.3849004837 -43.0396052688 -133.810500232 218.645021603
97.0823141752 141.270261382 -111.362852655 -764.068256792
27.9170399163 151.630301918 -268.715454527 -68.6877157893
183.498641903 225.635006593 602.123001435 -217.056676253
-322.50010997 148.334976669 116.581586352 796.815633977
337.167426604 -0.928106884387 -51.011446974 790.538707204
-363.726989077 -185.985385243 -177.894533467 -949.389296906
-52.6748870369 87.0541185429 -541.408372484 131.335093395
229.040887513 181.234295053 195.591069025 41.37733475
-119.21242284 -250.069839756 71.9490469692 -299.098496329
277.806216664 361.726562738 283.980688247 213.579598914
-84.2133571188 -83.2436485597 -117.89747324 -500.002867704
120.896929429 -17.2352407733 -307.373561266 -147.795996914
-158.082294862 -570.411172384 246.171357243 460.723339706
-250.648103786 -106.136930606 5.39577277877 143.765661492
88.5542278382 95.8431752052 46.784753978 420.934965923
107.392290554 -24.6076549232 -56.1244215864 -36.6531282765
-427.082433291 -602.000108578 -217.213926702 -152.841989222
305.126373066 369.319976026 140.891209549 -58.2661699634
54.4884415065 290.700957814 136.312346675 67.0356771181
45.0137818237 -72.5582192224 46.2735111873 -260.437478865
-22.3144110696 130.229696722 -67.7427304841 3.05196191148
119.734448533 197.676798893 25.3365173446 75.7730274526
233.267580083 157.628119579 149.36494948 84.1425514844
69.0346065222 70.1735779553 9.67462821174 77.3885353545
142.429956914 146.457617098 -123.606311894 302.347777007
1.53410144553 -566.731950084 -475.288093868 237.568942983
-27.7290308315 128.542229291 215.221843065 -489.225821013
-415.411790484 45.6804971544 79.9294979576 -472.983029683
-98.6091020985 -164.11351898 -41.1963447769 -289.250285605
272.298093073 410.089503745 -32.3566162427 242.831249722
111.174092889 152.628092194 301.199882517 791.488886325
-324.171268085 19.153017363 -0.560613124202 -419.986406108
-724.592480301 -507.27031952 -192.040921685 -515.447840563
30.8932539788 -213.733438023 59.6779341303 -691.195392681
46.6719670134 -282.027816698 33.3568895034 372.314570562
237.9929225 602.991028615 -136.088407623 507.177749011
-131.567013103 -41.7114371864 -177.034004946 30.6281933731
485.057184495 5.9745647507 274.62666127 -20.0797712665
450.167636258 71.8565024608 137.956810416 148.422590386
-169.067179932 -157.679305198 -44.5407085457 -51.3615986198
-68.4234737712 21.3970502972 27.8776223635 89.4299427508
19.1729961349 78.4193119486 15.2726775675 267.504726372
-227.647661717 -191.608231481 -51.7062625914 335.923924518
-11.4410509424 -277.668280021 -200.718949794 41.5614791554
203.110018363 226.176417361 280.091522945 -451.802809102
-35.1117881982 81.8277620827 -1097.92900307 -287.542880942
41.4723172303 231.135158448 1092.75722309 -56.3555073696
-152.433665393 -159.427420734 54.5030719627 313.714534969
-135.891076591 96.5915860876 -77.3756572838 -295.691937427
83.2762594629 -186.234114448 20.4248611571 -2.75048848913
188.785665663 342.314600093 120.706477307 148.834381777
209.111599212 235.473591461 178.129870177 98.155400586
-25.9041618681 -424.046691867 -215.448513918 82.5624538544
-222.763016964 -273.329263398 64.7450929834 462.235891755
-125.936920333 303.003905727 -227.233627091 -653.538157515
-91.5400492522 9.32688681899 -140.704251485 -405.824243963
-57.6634445345 -119.674123899 -270.963490081 -99.3149659924
-130.293535593 -34.7075715152 75.7463318437 -33.680749691
166.432163542 69.9296282961 140.917590595 252.082183995
-122.854825332 24.0738184073 71.7652024927 358.266653275
25.7488631087 -24.2037509365 11.0855970567 -99.4606523705
-1.18609145055 -76.7266670354 -65.7863647193 20.5119551164
251.061725935 -93.6032804253 -1.7691082786 -103.975617383
312.0888515 474.661879023 70.3211223369 26.4300319665
412.581989255 341.443749692 -487.304863001 201.28234154
-676.279903874 -534.357127916 42.7185135387 307.810253321
-305.707455522 -308.929434804 12.1147791449 -81.2191324171
-28.2774977069 197.952155547 251.679104121 -334.546982
177.98111625 -52.8167406267 274.291623916 144.070975623
-5.14451184499 -79.0003419046 189.259237415 123.697326624
-34.6409330085 68.9396895673 -31.6450740167 56.3912479171
-39.7183368368 -403.487733144 54.6994014934 -267.601353628
158.596745735 500.588227264 -88.2832992116 20.0110682369
-91.5685577894 37.1110667084 -65.1303537595 73.2400939174
387.496674176 132.946252884 -46.0313690366 539.055858056
-133.955798009 -154.007751966 -86.6265217707 -723.522063841
-57.6699640756 -47.1848518741 -3.05149194862 -498.141885075
-0.16653289705 -4.69775017567 21.6580007692 45.9864192868
-105.648383035 -78.4906510273 -102.365297784 432.402480935
-30.4171640039 -62.4073359243 130.264334938 -513.515160549
29.0583726867 39.8952978313 46.685515967 267.668035318
-3.02609609448 32.1419765451 -4.35425091487 62.5844104366
137.220392987 389.052676918 -202.152353602 35.1551823099
100.604285689 -58.6419757458 101.429909866 188.77324427
-71.2701517272 -39.5151681074 78.7180636526 159.786651183
100.799990036 116.501129999 -31.0486148596 -92.4621341431
-72.4173338164 -55.0717914992 -58.1837783712 -96.4712758202
-186.763896493 -244.259959457 -19.1271035965 188.230167438
-89.2479577642 -31.8845237373 143.723561101 5.5915825086
-41.5923937022 -76.8113429521 34.6296790748 184.533075411
-122.477191837 76.1416369634 -43.334807851 230.186128377
397.808049521 483.380920828 -719.830061776 -105.586198702
-261.915976304 -383.822984369 870.229080079 -312.447285547
-243.845907259 -388.488793427 -263.37605418 -270.330940635
2.49090520276 19.6802371058 -37.2383699991 10.5022346376
95.4017265989 -442.818726854 97.1536259633 164.005296732
338.930893079 212.201327887 180.482056442 187.132626124
-384.059485924 288.059792213 -102.525698777 -256.793868978
65.0906237937 -68.4949102698 -16.4159311418 -42.2639644545
-235.006129425 40.9133818129 -88.9275165303 -96.4019278172
357.689983515 137.385003749 25.9507960843 -87.5681938949
172.865790446 467.171910746 -77.9753624789 59.4671685929
202.883355057 431.457930739 -25.3102566381 217.04805669
224.353323041 -396.800743211 67.7136111153 1255.72956832
-195.657320353 -133.631569993 -42.3047141862 -637.972427466
-102.288521382 -66.5656892194 43.0677888389 -1357.49124328
-92.3501089392 -249.654281716 -22.9874738075 -52.4124654045
-28.5858105725 -48.4802046244 22.4507626643 109.255711981
-87.4439073069 170.207121998 -103.630413462 371.317096153
17.8120190745 246.327355571 -382.434073131 318.548005995
-391.544044894 -422.25905704 -296.374779024 -504.170164393
158.262713494 -57.7996330399 583.844033152 134.658990544
66.723927427 49.8197659994 270.815725136 62.6651608073
-19.1204532399 42.7374414051 -190.511477031 252.408561372
555.926552652 356.304215188 593.340481306 91.1792154385
-116.174125995 157.271739781 -134.307282424 165.827786043
17.2624484003 -28.3399540237 -443.925587398 69.7874921369
-194.412316512 -549.407658715 311.822091961 4.58651881376
-131.560875563 -118.685869622 -94.9489439453 -196.128818628
-66.2795326335 224.75683311 -42.4856396859 -151.676928256
50.1940224393 8.67102221581 -52.8941938965 -129.245389539
44.9033759395 -20.9183598953 -35.7379552833 13.5239621912
-21.053700872 -424.105370443 34.1644364961 122.30290951
140.640740979 252.562943006 54.2142950097 22.1645467349
112.588947143 199.016592917 80.0796984344 355.049755553
239.485170077 10.3516936829 -56.7843464707 -383.125905395
-216.137287772 152.83057621 -205.254704072 -113.128945942
-197.221225874 88.5786461733 18.1939954943 77.5087290908
130.549326196 117.784148398 -312.075319399 178.23485216
-70.8324801854 -405.664851045 -204.995359896 308.527679696
-308.52851184 -290.30623554 147.051477491 -29.1891951747
-73.6792789799 -42.872339899 326.607148759 -226.654573421
132.766825159 4.38059649994 184.707400459 178.53373761
-74.9174355198 143.538765967 89.7022829445 255.352600563
-10.8501474714 183.866943821 -65.9002313349 -1248.64697732
195.82867763 -254.106766877 149.215163154 533.181661046
77.0906920196 828.036436803 28.175713423 83.7148139838
140.229169445 116.130643713 102.446712982 -112.278762782
304.96356174 -139.321494439 -128.581613592 200.493318846
-289.853709661 -279.918875127 -239.080298301 -24.2860165736
136.950707205 -43.9635780647 156.778141401 -447.906553613
-281.82640757 -5.99406123739 -424.644472614 -38.7882632514
-143.443913415 -122.869334912 487.723454524 240.307076089
30.0728771189 -214.661106482 37.4490005415 -6.77147202065
162.624528613 108.098846186 36.4905837617 -5.97147291688
346.427128418 42.9969943512 22.0306455017 76.3232046248
-586.743180735 -82.7004929835 -191.886641195 107.618232527
28.9897495703 289.096811564 -315.756706895 189.90495031
-475.497557852 -463.701509081 -48.1470028486 -131.73657652
508.952629042 67.0415392239 302.00094478 66.5414514284
-91.084435399 -99.1260775072 -201.46041698 -24.6719327076
126.99573054 135.890462249 -169.335267853 -25.3154890858
96.423836447 380.198938398 186.767685855 148.990370955
89.4554119534 -70.6764178126 -13.1611417222 -18.4917726858
190.198862804 372.691719533 196.749353948 29.564630478
-50.6106106152 47.5189812736 -304.93619682 112.810955798
184.234332902 -183.072570432 353.571383615 -318.153242242
-262.876824622 -290.522566295 33.4443125695 -494.982819573
-102.664874384 -0.981649451262 -8.26801784698 155.206535973
-185.018614254 85.9789590943 -57.1645429061 536.623465249
-120.737627509 -290.06548746 33.2211022044 -291.49879452
265.278956372 -86.0559653218 124.935174096 -139.894513209
-17.625563 51.0722166494 -130.461858991 726.261939058
-70.6241888667 -3.58923168734 -110.93314507 -214.836999732
252.124406529 239.462474456 105.458385024 -191.949872801
-351.706818672 -88.3718226209 -163.467904607 289.156282511
121.046964695 118.037918662 -595.231901921 -512.117058975
-169.04634625 126.780587269 -189.217417812 133.924443888
-23.5932870057 -362.880606694 914.380999908 56.8965758679
87.0871847853 -101.505852364 31.1418288633 -279.390782198
-364.951595723 232.424716184 -112.180835834 369.157771785
434.103958791 -305.630249014 331.871538407 -549.577848216
26.0905848755 95.9169508525 89.1224544705 54.5792234007
269.817328606 202.26152953 -8.73080651779 190.232104254
-166.234059433 42.0696944379 -210.020979321 236.434645424
57.8778281858 -116.028328261 -96.8832172714 159.441568785
32.516846586 76.3464396438 52.2523604032 -9.2551341532
-59.4098562773 -144.472356962 -156.588791694 112.158581849
21.5788226279 -467.449321705 -165.022421232 89.9137217766
-235.738840036 188.842677737 -165.675815109 86.9605991625
335.143124053 548.497443075 318.387233645 -559.596592989
303.616591228 337.765406616 363.676815721 272.859452999
-500.790723454 -132.351317739 -302.066740215 -347.666796405
-195.102338718 -416.392095466 -47.2190218978 -75.3827389528
-50.7454760203 39.544237827 25.7272130663 -57.061204185
-57.1007201915 84.6318188139 -335.462561355 -39.9849220666
266.200604918 248.685527495 106.480722995 118.665921442
88.257078786 -4.20908930366 118.662036754 -112.387744235
-42.6573036278 -689.978124107 -517.889066036 187.081583239
-229.201805663 455.827732853 663.630469455 398.370082813
107.022680058 50.0131737089 61.7017642345 418.783387267
-44.795993446 -124.752255065 -111.45387479 35.0515716737
183.805131984 451.736592897 -102.404091793 -402.188338808
-146.573937104 -999.524788341 189.868891362 -224.700961799
-373.547278545 210.589190641 87.9828505442 -681.330988881
183.188660751 343.767085314 45.0589298296 243.937101448
-67.8367368392 -256.845347172 -121.716697153 -141.279459222
297.769394813 408.578641552 -217.722730374 -13.0278224359
-95.1632752557 -430.35557418 248.203466504 897.582103743
60.5704858047 492.926458127 84.4977332343 -222.582527362
186.073366849 318.274991425 -244.190646423 -247.064260828
86.7961108412 -190.425796353 -228.840386911 29.4783878845
-50.2431289106 -208.89917323 336.352400491 -15.359191055
-113.969806907 -77.1222225939 24.4975588713 -110.637316094
-171.921258939 -97.531187203 -75.5462775644 3.96280287267
122.645010749 151.194244593 -404.136694686 150.40726665
384.809470554 171.976514073 492.092813245 -57.2073663542
-101.656070958 -639.771641248 -90.1315394563 3.93965309073
136.654703917 141.784262083 392.845792234 469.220452002
-35.127322177 395.434808989 -269.041472696 -222.38484324
-248.280292242 -131.121303 157.650791941 -163.435242977
103.291347731 247.996185924 53.7361475199 -30.0216960912
-101.228826415 -187.005189195 -94.4604193325 50.0703165644
-263.930125069 -222.61329485 -89.6411256434 249.750359234
21.916780132 -98.6778391172 -101.529935312 -462.19565221
-96.136731971 56.7040182346 -154.187674413 -251.170675463
7.49327677015 -169.437630612 2.90436483287 159.014296319
262.952139263 -10.6960026299 2.88137783418 421.058776647
168.019591552 695.655437172 90.9062365186 -186.148688047
-179.730187618 -259.428171243 -153.22274827 79.6952163518
201.287901637 4.32851927161 74.4938364738 186.315365849
-156.861094106 -119.939863417 59.963569721 -340.00943945
-101.272780387 -86.2176158106 -177.095458974 2.00549796862
169.561692381 220.210609377 53.7995879218 206.806599217
-202.954913026 44.3962329352 230.079659064 -380.949355088
814.476759269 589.358575291 -176.725101506 -127.016000316
-382.931788051 -166.203787227 307.216065371 152.167398823
-364.403080005 -252.960955013 -39.0315214432 652.353142984
-38.972148148 -310.205499157 -278.54095208 47.714473075
-88.1211816805 -104.906043062 344.295907242 -448.432319432
66.1441682906 116.332486017 146.380701123 106.026051654
-148.353322415 -99.0804261299 -122.172653021 -142.877756798
34.4579220953 267.535731688 -57.3911835622 240.543392759
140.121808251 -26.4595008347 -88.1810095291 -203.467306326
96.9848231997 -50.9387249091 101.37308706 -378.145478357
-332.056033339 -227.121376745 -497.359408176 200.879181993
338.752086572 -142.581468585 90.8616891806 645.701570709
105.60299466 272.331434918 70.1105432112 -717.30687904
-119.63393247 -194.238965918 65.3295968507 -261.892119463
-71.6659252938 59.0742976188 -81.4010389186 106.848159738
-253.418757976 -95.3213893071 -253.627703693 148.435884151
381.1888559 313.977905327 57.5929531556 49.2782978433
44.8577653083 134.362618066 28.1197452647 166.032296318
9.48379517994 -112.140230651 91.0035363125 99.3410362722
-284.576044868 -83.6495178416 -665.213044365 313.843845593
324.475125657 217.896722805 905.213933319 -484.050992927
88.8794742073 27.2325080479 136.473635551 38.5470794723
-47.7148131769 -66.1887807236 109.401809229 -50.2767720769
-54.5333143129 -69.1374785826 42.4296075819 80.7965808579
-290.324664913 -323.311923308 -123.633927581 -126.597660264
59.2943214444 -64.5384997167 -70.8301614056 59.1458065787
-470.839940246 -207.969177075 -62.5486010651 -109.727306061
-56.7024735025 87.9010660431 -145.225185397 -19.6165801965
424.17640191 217.531012235 79.6541286073 156.851392722
57.6576021022 198.021985287 -30.8395551245 216.187428421
313.113557126 245.593691111 55.6236716719 363.183850138
104.306979304 18.99597839 -151.642765707 428.385747407
-16.3789132006 -109.887802083 161.18498934 -487.64143601
-390.950013798 -49.585039107 -125.17602791 -395.47157206
-148.952391634 77.1046653617 169.89400907 -144.156963276
72.6723669546 12.0200777094 -373.874045889 -87.1737255936
200.422564565 -237.105851906 218.571761512 -62.6213593965
-238.227286089 476.094343624 -155.23107391 323.9883897
331.459741701 62.5468503989 -123.055044923 -229.057564872
195.076651947 -189.346210454 524.971793449 1194.65884278
-579.20484124 -473.777292842 24.6173521422 -1020.17847607
29.7930959219 -165.819461765 228.573938802 -409.729077978
-51.322150179 -126.173765051 -217.468469272 153.386613008
147.638376279 135.424506385 -20.5693956349 11.7510237459
89.114932916 35.5169518243 -86.0867556612 117.280852687
-128.588941486 -122.203987101 -117.326626292 -12.004851585
-131.5008673 -150.748350866 -127.901708582 -222.291294584
95.6555987452 34.135614526 -10.89251191 41.9813981473
238.684112495 704.598483923 44.5558094331 244.550907058
136.758675044 12.2179165992 -46.2693462628 286.274888224
123.557400403 192.587383632 52.8215164363 514.199423548
-103.733468436 -110.712727279 132.684870969 -56.4105039412
-363.540432449 -496.834625754 -77.1576274163 -501.09023626
242.625017369 69.8727119155 90.6164826738 -88.8672685682
-108.658419615 -149.552757515 -31.4808694966 -149.914472678
67.6344189254 85.0567365202 44.0962211887 -103.051395006
75.2962665104 15.9159171593 -59.9843084878 213.828565587
314.138627001 487.49386333 -633.30440983 8.56513519505
41.8953158641 69.3904765258 311.825476917 -30.6693408795
-291.257104103 -888.135985611 756.07552292 248.375592035
90.9384207043 322.297552206 -106.447214694 -262.204572885
-134.799912406 127.959738971 -75.7746792782 -192.306755658
-238.184634588 -70.320489942 -68.3336242527 42.0062367321
-3.44215057123 76.5478585721 -113.306101046 258.743627584
-601.76877228 -202.607019284 -118.408014177 -148.71833215
301.412382917 -81.041921324 181.590954047 12.0051539964
375.389186319 543.794664461 91.9929543508 -359.902786124
336.262452459 262.141448867 -199.017973892 -66.1302838193
121.297934375 261.937635432 16.6479852829 61.8388780461
-167.53031791 -200.341666606 -219.731288382 117.935670414
-451.403053939 -339.130769631 -8.02160089625 615.935127877
-338.046624675 -446.989983098 3.7600369088 -639.536202469
83.5449661327 -80.090027214 94.3337039437 -170.20728489
-17.3246347473 -246.082071121 54.4151221595 151.982898268
289.985877478 209.104648875 61.1600013969 303.681609847
207.409713553 357.168547377 -184.146394413 161.691793468
-481.915151442 352.553027058 -942.989565159 895.71862125
629.345145017 -424.586731382 999.53661268 -1366.83737024
-117.068043133 -179.171349636 240.322628884 -262.984302222
18.9161147463 85.3598391197 71.7484338701 -16.9299629139
-92.8381949854 -11.5977489845 -51.1726765427 46.5656386007
10.4042133247 84.5082094658 69.3749260574 187.192344373
1.3068305623 3.35424598157 -2.01340314991 195.158138194
-110.771181963 -62.3230713906 -23.0170194852 113.318654126
159.515077229 26.3370583933 -37.5122786567 366.679583893
97.271904982 403.236348283 -218.790666444 -58.440190412
63.0737796147 255.364937182 -116.469951415 90.6400241839
376.059062065 265.331949546 86.016197922 -380.789163247
-281.003653324 -657.149949748 71.7148987264 -117.468081123
-190.277910914 -123.133951169 13.2828134757 277.656860306
-169.509435469 -18.5301858687 4.57981677268 -221.960398214
69.6240598191 -5.99277914505 109.753546642 -174.455190615
7.77140311406 -112.345732439 23.4952916986 71.313468249
214.674131803 -223.711779053 -162.849552324 186.109173086
-269.415848187 215.400385526 -89.8517606627 490.921094433
-125.032580685 -121.746602834 -8.38596389392 -34.972458917
50.8237754164 248.744701473 24.3978503912 -305.205413717
-14.8301222113 -25.3582163285 9.43878175706 -442.989582333
-418.614724073 -111.446514693 -46.7875374127 47.6774096637
404.047202794 106.358303909 231.62708783 14.3427123197
105.707952913 60.8939063758 -534.681664121 -85.7382561192
114.144528173 70.5588913898 313.144419748 -77.7994579255
-141.528196373 -398.563895616 102.956669736 212.416396514
98.0186312761 202.257147129 -115.126187508 403.578936984
101.782940451 242.707093244 -57.9942436955 -28.5422579523
-177.192081312 -93.7505415235 -15.5449823168 47.0295065067
109.147550389 -25.6285149068 274.382281595 -105.279699446
-32.8698466404 9.37153856405 153.237423094 131.625540666
-34.7616141294 174.66579318 32.0352166829 372.011458496
-27.9678550777 -239.936951662 -57.7736785181 -251.04958528
-53.1906371784 -16.8165672532 -25.7813590238 -561.043870102
150.549012966 103.223114615 -57.5207839151 461.095364506
-11.8204836998 1.52549887558 8.7661009171 -26.592126707
68.8630661377 127.441293578 -70.0783369176 -424.856164397
-24.3415792437 71.9316993063 25.739130583 232.495670488
-516.883890646 -305.615155155 -212.442921303 -287.915505408
242.225921636 -197.392986535 91.3595048648 -191.10545309
112.114467968 251.803247461 206.117718047 -204.834174992
-187.551024962 -206.109074245 -186.318739489 167.897793459
21.1325789191 44.7117474079 -28.5586225873 165.547274271
99.9559489399 162.658288267 -47.0133978691 155.038138885
392.353409419 -356.769579649 -34.3151857015 84.7963373466
81.7313370884 406.959167582 37.8593584965 59.569988002
-262.388696873 -88.9587525804 -846.549648286 262.114290094
390.249674555 469.601743511 1264.06470994 84.18119706
-46.137951757 -390.191842063 103.253474234 -404.794586937
-456.433931928 149.608264334 -116.891459756 -65.4521409122
-78.3877767604 -61.7399946175 -192.114718855 -42.7161869911
108.339336004 -23.8353257108 220.042729891 153.843186041
82.8839149734 -36.7428401451 100.790181234 -39.7812312454
-63.3898085247 22.7589840498 -72.904792206 950.327672838
-215.534899167 106.964711308 -118.276001251 -188.738313549
579.941635003 180.496503202 82.5172582635 -1051.16265371
-475.25001419 -396.083131005 -237.930698936 -178.791746858
-410.330850091 -436.881244897 -166.522230569 106.648892883
214.849281552 174.479634684 -114.483717128 316.812696633
317.028498793 294.369111229 -46.2243715327 383.527040856
-400.774973178 -261.083711548 -97.3910114725 80.6455918665
72.9588698854 -158.829249327 81.475578425 -564.863499399
-5.8163983559 -70.0884955769 180.372312952 -455.798442011
-72.4849547872 -755.843615472 -368.433981082 176.605369896
190.629041803 672.15550959 372.962018086 164.800882432
5.79841525141 323.141352804 -290.522391573 417.848345849
95.1168195079 338.484675786 -54.9092527923 -54.8274046459
515.43316388 402.693104855 464.042511172 269.69897547
-205.057151826 -398.901797117 134.75318924 -713.30662091
-206.723599621 58.6071086961 -101.206959723 -76.4327499359
-14.1382411066 210.990090205 -77.1781826593 220.646267487
15.2522118334 -112.478827108 62.9468085301 588.242286396
112.594756504 396.406214864 175.387364479 461.91414087
-22.679125827 -151.284504432 -200.861117931 -260.039612945
-115.646973209 30.4440646602 -32.5866851815 -800.352333054
36.9656314725 -104.954323578 92.6579404736 -207.336182025
-75.1098355011 -281.150317019 14.2383888336 -62.4382739132
165.871785237 70.6405295764 -62.6647413355 439.106532692
-176.223034885 -211.198436619 -9.21398568838 -352.599685369
-3.16398951254 181.871182872 -137.416440499 62.7314342569
92.0498242786 -514.146924919 -174.194195208 138.223461566
-10.5244922985 -7.65953413612 -323.579255075 192.974480105
11.0472714974 284.608986131 431.882151501 47.3335014225
191.440090439 71.6763702568 -94.8842011781 32.0783600337
81.8230440665 53.0211202249 369.208352702 494.050983891
-133.44805169 -179.374229969 245.081231926 28.7914820258
64.8801795418 175.934518884 53.9621893861 -477.069948908
119.991182289 201.595692531 -245.553645526 393.459930262
-360.554613703 -630.48298708 13.5661681398 -508.877574496
-103.585365985 147.395239911 -166.765361126 -183.981279884
-154.606133873 45.771087755 55.7442697786 20.881929957
22.3025828703 -5.05765503122 -122.128719659 320.200206416
252.451449029 422.481307569 111.293242304 -311.546597978
-274.910339155 -136.60255557 -64.2171859183 -0.758580101835
-216.68080721 -65.7052845583 -147.087414527 252.573467079
-14.6037240121 -305.064588935 42.4028689496 -9.03009995533
130.328589453 124.20854352 75.1945658086 354.685375612
120.337599942 -293.366614683 -136.163364281 -113.095152059
6.35546215904 221.664593808 -102.376340382 -319.389268048
-248.47311517 -546.427032237 75.1320187275 -242.176087091
356.18914381 589.821063584 107.741386734 48.6026046046
676.76283424 14.203621137 116.497385991 278.220718614
-328.368246779 158.221411796 84.0494683035 48.8728895884
-331.464153327 -49.8194603903 96.6405738027 -330.331242188
21.8176550113 199.957087982 34.3036832485 151.677970744
151.328528201 134.698956741 192.926774346 -404.045524026
36.6038237283 -51.717166335 -94.5029062105 88.942108534
-75.6606328026 -149.816483594 -212.563022518 54.1987389163
528.8489208 273.865171618 118.63494378 119.129012061
-113.287353174 266.604850862 -157.939337762 174.422754172
-391.116454714 -675.924322514 -390.550831009 66.7687423845
235.587604235 350.821479131 -110.468316436 355.564262787
-41.2259240241 -68.5373443947 520.330936491 -243.075307116
-140.850139929 -112.616913008 -385.941664869 93.2822742424
-213.566439212 -267.799593454 -79.2855033967 -212.957442336
-17.1318978452 -130.600006519 218.806497435 77.8656464466
-236.922642397 -278.602090964 -88.8741035228 -73.0769606126
41.1260171133 109.892562035 83.6847499435 -387.21016552
134.261504978 133.213285057 129.57544892 -111.928966429
73.0199596274 213.8939475 183.273788025 135.119912197
128.984251167 -505.621870635 -489.168605551 311.946811064
246.958861685 844.858865331 751.152006021 289.305005602
-352.298132346 140.220577633 -447.390909533 740.228636161
-214.627892043 -124.853982191 233.841771748 -58.6627191376
567.356400112 372.798866497 -317.145371285 -1.73253904531
-913.974501405 -901.166322669 -106.951607687 -661.534598527
-70.3329044709 -277.809752359 305.75104108 -1225.42644842
255.932504178 202.086888721 144.116792926 -75.3348866008
236.507967735 209.225635333 55.0829344742 295.831676516
228.799328575 86.4075845923 -224.87908492 -22.8827572196
11.6831550894 -145.109969661 -149.524902627 158.948081666
469.064423656 134.050028831 83.1443940703 158.524480976
119.794825826 -328.58383985 168.815457994 184.233730012
-570.622751616 219.339298682 -169.453207096 247.301262561
-7.59486178214 -48.8771293525 -23.2711377748 230.903093989
235.442603287 732.492086979 -13.9072515843 510.03183888
-93.3857462334 349.18097827 2.38245489538 -151.243424887
-314.985240675 -519.701026256 -165.05822088 -238.710175268
203.803984185 -115.744680147 224.092538911 47.9500510948
-137.33630377 -340.088435537 -54.9175486939 -172.373217566
160.349930056 398.698606271 -59.0022287009 -497.690929016
233.396252143 -369.331661275 39.6733163501 326.892621566
-690.72319575 169.281861689 -283.177788381 -147.927625363
792.445617965 80.8820631619 446.142260774 -107.367766689
-100.2804164 -203.618054974 31.6636331564 28.3725220682
-42.8027533219 4.10430912061 62.7315800239 -72.0337465476
-248.757035972 -158.566600575 -86.4384411646 163.177342758
326.790121782 258.279133623 -9.1061116316 118.614330986
6.59074467511 187.366123469 -238.930503751 137.256676728
220.407591557 -92.7464562593 -308.471955419 135.216851228
-459.791570287 37.3719712367 144.197170278 -458.749222548
-346.525123671 -51.4219887074 -6.88950523404 195.912186251
22.0810749906 19.0324683644 340.014588174 173.476371982
-237.208851172 -384.345819722 49.0952811785 -122.650735438
116.696840256 60.8655232812 36.4417560958 -275.934317792
-87.018650174 -311.907279388 -76.7255505164 -303.003043451
43.6756384715 288.953108069 -49.5022761763 45.6242421178
44.0515291174 -254.959052155 141.746028675 180.859093909
125.617889788 249.346069717 -4.5685664214 633.505956383
350.563589554 422.663174615 16.5574855723 135.643420601
-93.677787388 105.325414301 -274.285084666 24.5424318586
165.771003088 206.244499045 195.239377004 -755.65700689
120.710705465 -261.718074067 54.6190781277 -307.18764463
-227.210850295 -278.84154062 -202.484414147 -73.3390296632
-386.227252845 -346.318728169 -7.93433928392 75.1774786643
-456.831312862 -46.3981853884 -158.556892318 198.089952433
529.756427876 143.975193604 40.5770239923 -13.5645003266
241.043264445 248.959361619 547.414048456 157.733473708
-120.65088459 -171.50799829 -154.427197576 407.311070147
-92.8310765824 -175.974076852 -161.305783547 12.4527001611
164.04437615 198.208932291 -234.85722904 -76.8576803098
-9.7748647084 51.2416577746 152.940530009 230.908529254
-69.4940270013 181.211268847 -50.7204464274 -110.586793503
294.482299507 -86.1464306019 105.060115868 -60.6661629865
-280.047335172 95.5708447395 -328.332554339 91.1219379191
323.163188437 -14.3106900175 440.411962125 -461.589653862
-14.4109735199 149.180165573 -15.737060079 -129.946101362
-32.3184273791 -182.460056167 70.1391527662 22.6741417862
33.9150707081 87.459283863 -100.302378028 333.640339202
-200.497824323 -664.873074537 27.7377893637 -449.139276231
123.690633882 445.924132373 207.022963684 -80.3114477988
39.3117128125 -10.4957783703 -53.1932733872 48.4887584245
-176.2285199 163.340466471 -517.590789188 703.542194576
-192.144168989 166.588019363 -563.073298701 15.1269347955
311.872529687 -172.681076084 675.063007971 -699.630103965
-326.000498977 -186.042719152 0.865582573795 67.5471953109
295.906615628 54.4331419253 228.666736279 164.109840515
21.4533983517 245.053064826 145.903114737 193.257555243
-158.567810772 -117.627343329 -1.99666639559 341.728081011
105.099050481 78.4701842355 -73.3985985247 -220.291607733
-322.36913963 -446.215875769 127.084159737 -398.258737425
57.7654517742 23.474955654 -227.764358039 2.96150521669
43.4141300525 -342.095648556 -369.772979355 206.498077979
61.6812947508 194.541538531 266.966241827 -62.6721795269
145.818827973 26.0177537389 123.291638601 47.2612729733
-44.7810627814 305.816614893 -115.722655084 351.743430837
233.217565399 223.328354374 192.446708371 376.17511075
60.4229961366 18.7514274021 -255.58666673 -955.186510358
-320.574347579 -1027.77539326 -78.8600186721 -29.4005819814
25.1028835977 301.634484152 203.835223682 -33.5563360852
77.6466827243 330.953703355 68.3221042319 106.529258711
22.7072467747 171.157392036 -378.392557629 106.823542973
-360.303968079 278.872285912 -162.022314971 247.995085942
87.4096530101 675.008489802 163.651259293 255.380359385
-54.7074909791 -245.980945127 405.224511532 -187.616331877
-195.192671524 -617.85389166 -133.592814803 306.283530665
124.614696294 370.249055389 -69.7191925159 346.288745229
142.465217794 455.71589343 -96.5341639305 -823.878494786
113.945103911 -825.311344762 408.190693287 -140.84813206
-120.603969229 -82.5821498222 178.788215201 35.5509312878
23.663674121 -146.124724694 -545.777520843 -333.41997414
-42.0286980884 101.650976964 -57.5398416595 -170.27364574
126.433329153 -442.823676528 383.007167966 172.726594303
-55.2042993193 -13.8180299563 -158.543429694 -279.774606018
170.010339691 199.766875903 457.72122541 161.183204177
65.8504547723 120.75107091 -66.3879119549 316.005978048
-68.9745164845 109.001619639 -304.534162284 364.97145041
229.880368797 389.329975812 -175.489723041 70.1757248902
-324.052970294 -317.606866936 -73.4970673628 50.3377876115
-516.501248091 -131.460226458 -26.2277710234 -299.739441467
515.830566152 329.045295 280.708691458 -54.0332091103
35.7959579618 85.0893525062 -61.9058212915 115.508341733
21.1048451376 -12.618127515 -73.8543166775 -57.1079552725
-125.601494155 -110.476850144 -23.7307333705 305.629376518
252.573831242 42.0277515744 48.8107952279 348.033927079
-134.995990205 -242.282227562 -174.011383598 -447.531458464
-135.114787989 93.7437713483 118.15342461 -313.44087921
117.158594729 178.899104058 -124.777657083 14.7108312552
-78.5444674846 -51.46722971 25.4644385112 51.4339801722
389.974856996 365.755431892 -81.7529228892 100.972346474
32.8859347191 198.027132577 -184.913400403 298.987328398
-626.519266735 -631.32407707 -128.457208703 -568.917991201
367.940093018 -108.473301922 455.051445785 96.5602158474
-29.4453628916 -185.358741121 -7.47694363991 235.196016884
-198.095934968 345.691940975 198.511788639 -275.91009962
57.3220579239 44.5830008911 28.6498175631 -509.241279495
129.787122194 -88.3353850281 148.916012634 -62.555828799
-112.073735578 -61.1699197017 -351.40513687 187.995468917
11.7388504067 180.654212184 134.734186164 307.117847493
120.12229687 -41.1565024217 290.747851043 63.9845593639
-98.1731226517 -416.616040529 -79.9631637131 -178.614797506
-13.2521976449 184.18286031 -275.928549204 308.766079028
187.052101883 192.585206132 249.058420691 343.131448008
108.194262222 -137.865764078 -19.620822701 -237.590251082
294.923455214 -9.35472915667 -272.728508286 65.6917663944
-250.2699005 -138.191156551 175.619399095 -67.3757477246
-476.103651727 -148.908791582 -470.897578752 -102.245239394
14.7329795089 -25.3650528644 463.056016689 -107.076519614
-68.3880156837 -32.6624368623 -23.9233326757 48.4042854951
3.13437031159 344.889813584 2.21962812786 98.2595543954
-118.202316848 -686.447758368 -87.7341495769 -129.791085702
191.235019914 486.557213264 74.8525758735 32.5873969369
-40.6336479199 217.749084414 -251.699854647 185.966001216
-39.0968965878 59.4382586542 -28.234589192 -63.224854135
-19.5593774648 72.2485332195 -166.756402044 -27.1210180563
786.707833357 197.017373651 569.896532876 249.001525114
-116.396416749 -35.8206476685 -231.808020761 470.739844164
-180.181428459 -69.4215605307 239.012933887 -676.525065154
-199.738371894 98.5290134208 -124.169541481 367.618294581
-81.6170442625 -62.6328807027 28.4416843267 -8.06328720469
307.313846875 309.371031602 -103.892343111 -483.872259098
78.9589333817 -384.109503763 280.040109817 -16.4901245093
-361.118986029 6.78802671387 -260.094697686 -298.429925823
83.4103348168 -237.112977121 67.9679392465 -170.727522294
-245.011563626 128.067012607 -251.999634292 23.0161779312
-100.474204863 -333.860763023 -206.981282973 458.724405868
3.77541866582 259.450363325 24.9620952882 -23.4697450316
-39.1567094913 201.650636574 307.425237353 210.025304459
40.449693825 -274.674578191 -57.7144364961 557.69164748
401.686446612 435.578657931 296.582667759 -219.330374106
93.1653295595 6.13752165785 252.544694483 -376.96726344
-94.809382841 -296.098571529 -183.168579491 240.143237856
65.3516489188 50.4211818119 -291.756256046 -525.198707068
144.571724449 9.89250587459 113.154908827 104.206699546
-125.445766204 -776.10641144 -245.656364087 502.779407941
-379.755295044 469.499288958 -97.984411802 -141.013691103
-498.614298657 -240.058251155 18.0890745243 -364.681883795
479.333863427 22.1656762891 362.002616198 -438.072621512
-75.9222386692 50.2656018688 7.23268475473 -43.1251199981
-81.6983693761 111.880495765 -129.55407905 173.947732454
289.246713525 409.922315382 -32.8690509562 146.600928205
388.217891883 590.842369712 59.6586174229 -127.589791368
260.697916198 -109.757874818 -56.9335855158 192.858686546
-303.353359468 -1252.85994224 -232.577666442 117.024522105
-852.252839214 46.3943027843 5.95830826519 386.512519591
365.497204829 45.8058701016 329.716187541 -114.524159426
-118.891398115 51.988724583 -150.597624946 470.246195
-46.1957357366 208.705505581 -82.5582423959 -321.407041055
105.366142243 18.1016078487 -89.6263832963 -29.6036378009
-3.10595254158 120.509975769 -60.5327401645 -220.990441753
354.329845033 328.550243881 -268.70804438 -230.099296652
-327.840502634 -391.19188377 118.043755975 -109.806735675
162.177529979 234.554805249 425.557059458 84.0359850394
55.4231525673 296.294059137 10.6871786359 -20.780467265
375.10914357 184.280327857 169.124390099 80.1102398391
-281.451260692 -240.092730516 -106.969489394 114.058614966
-233.052493812 -112.564979496 -50.1512554845 267.168275302
194.666081778 170.562448406 162.896746673 275.973461687
294.504335425 474.251638631 181.961984876 213.863621949
-381.018249332 -693.661933585 -87.4523431118 -668.492871241
-124.840591456 -555.048342005 -218.524101823 -335.799454303
266.113988783 401.161174536 -69.1920216682 83.0270714769
-154.984055901 137.834159996 -170.375155679 -7.84312763586
76.5924978484 -111.79648323 -126.006322699 86.488659373
-75.0251404445 -71.8927736244 -104.774909143 48.3540215743
117.006721687 155.513318685 418.643517989 -164.627226822
-82.109199545 55.4124104982 -500.723090444 -13.3461071747
300.196717084 28.2420214993 322.224743988 500.160096502
-211.351510941 -207.320815117 311.961707257 122.797285854
34.8745745565 -143.751826042 135.41312054 -259.20216218
40.3242639292 -458.559190525 -79.2159393617 -365.490296398
-272.310977179 159.740371321 -102.436430273 -65.6927035609
-40.424900132 154.85561941 206.322754135 -71.9106436803
340.147101943 553.383753788 22.8860878802 199.163176981
84.4619339454 -17.9913597192 102.680011608 -367.51641092
-248.698371826 -384.906807131 -9.00315664568 478.883689452
-400.808230009 -81.3946864298 -346.505066721 7.27373409827
432.576747359 282.036791248 -97.5750302528 -31.262166146
265.759946746 31.2831186748 -412.115352421 583.584465888
-503.775857945 109.253315738 471.924558869 -392.338005683
-201.961439842 -226.052597862 -127.533650823 -459.66377616
-255.537252421 -322.382019635 -35.1130403762 -178.150295044
442.753206039 40.7766999342 265.838170543 55.5743810614
99.6158703613 462.421479133 -344.395380797 261.003886461
290.531366246 113.809183379 461.621403242 124.183204599
12.4329127413 43.7418816862 -98.1568894054 427.262979779
92.1639439633 -97.5745087014 -104.118829066 -109.643835111
-48.8429539649 -4.86064250535 32.6891529272 145.587984523
-100.890931298 -225.277526533 -13.0421997843 13.6971425528
-193.100953689 -78.6852122483 14.8865280062 -532.078923814
5.06387710423 -139.061952138 -123.37123041 -29.4328582861
156.08832676 407.877629261 288.902923582 -56.1715443401
129.568056682 139.046567467 51.3003816987 199.379994751
400.368696302 705.198831529 -290.316949503 522.028864848
-641.889883794 -712.122002379 -85.6689010877 -303.37288472
28.948497171 -238.740852763 -44.5559044824 -222.312613572
-460.025839239 -572.246829379 67.4821275853 94.5900196062
-13.8760771966 -7.72468108844 -151.549366716 147.789008017
-47.9861668659 194.656119421 -154.003151121 24.3712547837
139.143261214 185.112034418 122.068536963 601.952966719
412.529437785 663.794147535 18.4698133275 -516.720168067
-120.213719163 -418.469445446 45.8860343903 -467.572447947
-100.849496079 -351.572936087 -20.5897950725 342.428644933
-198.614651443 4.32342441933 -367.741026327 -685.504917672
300.839793706 200.794595615 737.307067628 -33.1165617053
465.122073044 618.404994306 223.410448118 -47.5405332506
-330.412563221 -739.328733116 165.934591868 62.3649297475
-178.317284606 92.6987413788 -94.0102046407 134.903113846
198.353811659 147.991212886 -104.37425666 183.923482331
-134.862308191 -315.967416851 -261.418890385 -156.420168662
-11.8287799453 126.241625204 -213.630505972 300.978066425
36.73783172 61.0251776563 -82.2146146581 -94.5446032753
183.056336737 211.747172389 -73.3597856645 180.749394324
245.271529017 -366.418659551 -18.5662796036 150.828434616
-228.904392816 210.257182614 427.5164178 -303.291809391
-229.995234623 -180.146243026 -31.1142244804 -87.7583306873
58.9247151916 162.286110687 -60.9403514713 365.824471233
46.6446615526 114.400467 39.2667573692 339.908607426
-5.77618241713 283.383666902 -182.179324914 -496.192705134
145.907065508 -107.220030624 165.370186962 119.652099859
-100.14891904 -474.336417296 -530.55335114 150.962848781
197.328020523 233.038052011 837.837933644 237.592686417
-74.3668205776 -110.210097784 -163.086144689 -52.5763322435
80.4518700067 260.960987175 -60.1834286652 -390.464625208
-246.930491704 -91.5050619471 -137.552729818 -412.848780361
-168.612755012 -231.628628031 -28.7103813735 -70.6003917745
-26.3877214721 142.146715162 98.2713932506 64.943795124
98.5384738125 213.930266389 -18.9138208804 275.917031777
22.2605554847 -186.97761583 56.0093822215 7.9764397025
-99.7914549154 -41.4087419946 -127.780351796 -43.7580843183
114.442385901 212.777308712 -67.1521961606 351.147327371
9.39776370267 -191.918247618 -205.914574216 -509.07848551
196.873729894 -502.861731705 42.8894391379 250.283705176
336.44958028 1250.9110906 -178.22620833 61.6076529269
-198.576556269 1.99373157238 373.650764483 -199.051655133
-379.205103146 -639.190455635 151.464254585 108.746728357
-54.8665715989 -4.79640783918 -86.0726066014 -69.9545218956
-157.122692858 36.237023233 -153.860838303 -62.9543068745
85.0106869514 -13.7947982689 208.324379434 2.70866324263
51.0324513879 -76.6932823166 -115.236943189 -100.893048689
218.217126409 3.92289802413 -307.705016099 85.8723850225
231.462679215 -344.837109144 703.797257092 153.697196185
-232.335020966 437.500730203 -281.187176053 894.692336169
-709.291591779 -680.101693138 140.783812379 -656.519495596
135.650761433 96.1220827379 25.6667950076 -345.668368889
22.6238961921 78.35424269 -138.816296772 272.034924584
136.824953532 300.065943615 -127.937004039 -262.565955156
420.267766307 430.253451455 -368.471483675 79.9680502055
-501.922486073 -315.928389595 92.8226595 -438.988614765
216.890103668 -294.700333846 264.143582009 869.336966715
102.757348382 -176.395183265 -22.1213573754 -773.630919479
-256.508419596 -30.1386121787 -19.6949578758 -170.876409492
221.981720916 193.843847687 -90.2149433091 139.243135003
54.7016963796 251.805996754 -22.2081530746 397.026420621
67.7678560686 105.244051319 95.4970427654 -161.150171964
28.6598025325 60.4323662642 180.929187063 -64.4624260662
-11.6770499201 -186.853888902 34.0762180433 -38.5299520104
101.439720673 189.015001223 23.6656841617 66.7987810039
201.321885052 243.579245372 -407.364293254 219.952927635
222.523541311 109.715713949 193.08713535 236.376783682
480.100727803 34.8302836403 128.170298499 408.557656563
-532.801989541 -758.733941452 110.737269933 200.25052346
-553.052241455 -84.8715136342 -101.470476159 -673.47322204
-214.067833666 -73.982300698 -106.335862577 -29.7277570413
-143.678686973 110.136060196 -8.92162954998 192.834956876
195.710877127 -105.439261595 154.26016411 54.7910073479
184.473383606 169.548065331 -6.65316694066 -748.241207528
308.350493038 497.196361057 -20.322432626 421.32924608
-156.750930812 15.8140000868 94.1431587922 254.384575403
-162.091073605 -94.7945953629 -262.601322131 -738.178593681
23.7198077569 133.068832579 82.5349288827 -170.028289897
-128.55380568 -272.159548805 -60.1801532519 -60.6704663533
278.388465849 -159.909746953 145.760201976 140.518641677
-433.615758408 -575.996738338 -77.3111086562 339.472637944
14.7048222722 -39.0056033335 196.428174504 50.495647221
70.5614238413 186.881236645 -13.9776439318 100.787029652
-28.7255323074 380.266260175 -238.496109122 299.714270949
434.486294812 216.485837331 -0.47985730643 114.560335848
27.6320040075 419.441737786 -648.195642508 136.875624999
422.785436674 -385.465835784 878.625045569 -257.836441413
-433.06069712 -252.029029123 63.5865659215 -100.125785108
-559.533369117 -190.974812512 -149.143507039 -131.091288717
115.217523496 -143.995078274 -20.2628124618 -82.3013909435
214.574435205 434.045135501 -14.3826617028 -52.0021347034
158.293257167 191.227213541 -27.9696440541 -150.521119697
-6.84562501022 14.6473384816 84.9007481533 3.1504608288
-342.358904456 -321.075071205 -37.9847441457 184.235256366
94.0835851504 73.4914365958 -188.438360994 430.425766332
349.218854309 478.258095216 149.877024174 -288.961847977
-13.500408593 213.98519671 -5.06924032205 176.743226154
-261.089501759 -665.022951736 92.3229353635 -436.862685504
60.679637118 -297.127371278 115.043408447 -158.491338984
29.627753286 188.790643151 -28.6719970249 -7.81859493846
121.267695832 186.311575394 -6.76065851719 127.309334123
-527.217188535 -360.694604683 -449.123050884 -6.97938771941
-112.069653391 31.9053065274 -58.5784630053 -23.5910204099
197.182263123 213.270330518 88.2911018314 139.537743523
562.329669537 511.258187695 -433.131584982 443.495211751
28.887337283 344.849481353 641.1400954 614.184111621
-200.690402258 -518.600046673 205.800991388 -1251.19995582
4.79916821742 235.656624243 -122.279384019 172.242775243
-242.434676766 -331.835181485 -252.581123026 -47.9921831917
157.308772832 -312.550787306 368.688985546 -112.271930145
-84.6696638852 46.7713008701 -112.497032523 205.03789213
-196.869040438 37.3401245625 97.5384315793 342.428346804
-202.179772792 29.5950287201 -110.745865073 -451.910219373
166.21797609 -69.8396583646 -76.6554427195 185.352409221
312.044926179 131.249212972 -8.14676101046 -317.459266613
271.654304945 278.048987606 -114.568127996 -6.93531127136
114.310809412 -26.4600605064 329.765258155 195.65852278
-38.0610680303 88.4346430673 -291.072335214 328.408755504
-360.292950954 -604.079350989 51.3609107641 -85.6242340988
26.9116925308 -304.446924118 -219.023812778 -388.811238339
-41.59430453 203.645322735 -194.618727795 -123.816927085
-105.672910376 67.1929749453 752.166112689 473.193818548
-258.398260682 -78.0633782217 -465.992483936 181.39314756
173.300627607 131.934741592 516.719961287 104.829234962
78.5286329602 227.529449326 -32.6724568933 239.038718142
203.802463306 102.964390445 17.5686195933 -161.881271696
85.9378454192 91.5155892693 -129.828405706 -234.932132155
222.118846184 97.6281945198 330.200498974 -98.0290937249
-419.438015248 -245.214894997 -818.382042985 182.704206473
-169.583283239 525.292947254 142.096830882 -495.873116246
-110.511039677 -282.933848781 -101.649842063 -67.8714946112
91.0916119569 -408.244292802 35.2473012472 306.778896113
110.723647444 63.3678827409 50.1439464397 -110.317435854
222.986979448 -132.008090473 102.230336728 160.831931325
-206.52025298 126.552251353 -87.8703125421 449.412155499
11.3745267587 158.600859161 -75.1849436142 -934.659841141
166.859133989 58.8059761502 -69.1802830398 -387.901432786
32.3851617705 -315.373287852 70.7633012984 420.848215834
203.61834326 104.87024592 -391.946353751 298.975480674
-129.571934069 149.684747493 341.807907086 286.471324248
-164.698106051 -269.416576666 238.958675427 -328.180015454
-238.934754324 -64.4332810152 54.0813093204 -142.860123015
126.598789713 -16.7831345972 157.191980566 140.275778027
40.5037002076 23.5796321388 139.18819112 85.531426991
63.6268060533 72.0015286392 14.5036778238 37.4927053351
255.04861275 168.732210184 125.875376925 55.9655156416
382.161356904 736.521502769 -200.921420496 440.346330193
-384.936408458 -888.936752366 -276.330773208 -197.649013711
-277.006763375 -88.7019736256 150.127355253 -299.223669885
-68.7995110748 4.3013117546 -71.8094985209 -40.4760263194
-114.682122693 -429.292282651 -96.7189668015 110.382165034
-3.84490897262 392.59494874 4.67341827005 8.64030417861
226.919722314 281.285329475 91.5953781481 97.6397456985
-159.378469107 -91.6044543802 -91.5403817833 24.545380335
399.546856431 598.817537384 -42.1466586538 604.113996361
-424.049825333 -127.524556355 -663.558039593 -1026.98536657
286.739623824 -510.528947301 923.586997772 332.213252903
6.721742671 173.326736522 25.4270241512 249.966937872
33.7673527247 92.0024961861 -50.3990876189 -259.126238837
-40.305901131 -75.7656062446 30.5872879632 -592.066581359
146.797551391 18.8965494104 -210.025439145 330.77121365
-96.1247966282 33.8775818296 374.528854225 -90.265255523
-444.227470983 -451.973214022 -122.09080956 -149.231572475
16.44907414 267.840428052 -202.320638489 213.36244325
-69.997758267 78.4686844298 -191.999957656 -88.3805476923
95.4228238474 -33.4554533266 -86.913846628 -2.79882867263
153.698381306 358.209040509 9.50091623121 350.948168769
-166.098586438 -215.865784727 -48.297547618 -24.6185010221
308.553361438 32.2077838733 57.7085413908 -95.1910758771
-249.986840483 -541.651004452 -250.379780781 102.598024677
-435.526265335 -583.017405722 275.656563993 -118.005509416
266.016828307 358.9296418 158.423897735 -95.4845975429
222.905550413 269.796502062 114.270422714 44.3673580489
168.560395488 329.64251412 9.04245741785 -37.2697887995
166.405666807 -29.1189148651 -129.905679237 -5.85347340373
9.06812951828 265.017794907 94.20340882 156.52610491
-312.822403332 44.9326583211 -167.438633306 396.544675027
227.380380368 -47.2789716521 22.3337099745 -366.812265154
-203.098198444 -159.060752878 144.039573648 117.895258474
99.9017921563 58.3526912927 -27.8392123582 -263.633972877
73.8907899068 123.303573294 -83.5744860978 90.290615309
67.3824651313 39.9589228828 55.1977600563 -190.191341631
-201.633321898 -168.529127191 -58.8527429268 250.931409426
-270.134120556 -155.362666948 -35.7795452582 -80.8901433582
200.67180175 -165.815873728 289.818549621 56.8972008945
513.350146984 368.412046298 89.5695925543 637.712217763
141.417917488 177.020340516 -181.234889698 -477.190574039
-933.563717532 -547.147817873 -725.107430181 -382.492368635
106.91509114 -475.878338664 631.528483286 -21.1036104448
-116.808302265 10.0522363868 -137.777952603 -117.342421607
-89.1370998596 338.068217815 -50.7094618191 264.108933413
-181.997432366 80.961066948 180.268483695 -132.454563654
441.221109129 81.9353206243 63.117547328 -132.218597772
-82.4660858302 -138.893389985 470.147092392 -62.7618386343
146.597737092 134.279376801 -43.601696458 192.489110714
143.938929667 310.984961573 -530.789324294 333.00043724
260.65528161 341.169422218 281.223780026 192.679138705
-177.867839559 -78.9907616489 -177.786740014 -112.412188903
4.21546692097 -106.811430634 -83.0210446951 -100.946465466
62.2281526348 -169.017639746 85.6959917148 3.65648815355
-509.43162289 -169.667777077 -72.7877002429 -70.666035611
69.5735927316 -120.165581826 59.2146455181 -24.8322110279
350.533849584 380.411156689 -3.03455409961 738.438072709
488.236910425 837.656205635 -548.530485926 -594.045388195
-659.297220217 -807.618222772 187.861314721 -89.5221593266
-145.314089536 -816.293560386 271.430946984 65.3603207948
180.089516314 235.300818777 -32.7812965823 -257.378251869
-1.56299318632 119.714841298 86.9965824788 -97.6105592839
-71.1742144411 -485.270815196 61.6679875225 -172.868099671
106.972746323 260.466139203 92.5552358081 -70.4568893022
194.686251287 -127.100745854 -107.84078069 -45.9325817295
-67.5064918476 506.752698546 266.721906396 264.556421275
49.9442865326 229.10222953 -183.983398678 163.393596674
282.090160024 397.302492362 -104.750776703 180.402565779
-117.342514345 47.2966781493 -502.790339857 247.345459724
-180.792357407 -301.478334254 727.325224494 10.9607454739
-54.6496778988 -202.773186842 96.6862951934 -617.117026487
-102.717856352 -70.1030079678 -65.8269335103 101.479831999
-228.31625295 -190.453378683 -102.16787833 29.3930826791
327.141740112 353.972768635 125.97784565 572.130866488
36.9099929856 107.321943978 -431.437083546 -64.0523812964
97.9173100642 -322.553667266 166.236867361 45.2339249644
74.9002970648 65.976551421 305.544544627 -691.50566832
-85.0634916741 201.660082977 -394.390171509 113.76830276
-4.68338080655 -170.631014706 196.644193168 -96.3683230554
8.37323999244 146.311904421 -66.5822965162 -47.5552235444
-188.875143466 -159.849490282 24.4480506875 -15.8374712258
-430.277451511 -431.181980786 -38.1526267529 371.205658472
-125.288567299 -131.945012236 -246.150721403 113.650104608
510.284948195 11.1375667208 137.468844857 -214.469266574
-0.64333572423 235.159969701 -162.29988703 189.726885061
-48.7944496269 108.206109234 -357.283060913 15.2585448267
125.215864998 431.768156429 -170.753760703 -196.024335887
-15.406839572 -82.2057664873 399.953503598 221.49956829
6.0080034188 -162.090677328 273.718005871 18.1784734721
-426.176737708 -326.975050381 -16.8346188426 -344.9640196
188.099997173 160.992376169 183.104635834 -25.7471306048
138.203274103 202.326304154 65.3690576204 184.991050262
206.483139589 73.0388609311 32.229649319 361.032380781
258.157255215 420.022163665 -616.851783744 432.913290771
-64.1249905685 -190.801535374 371.772278401 -597.109952238
-459.853188671 -822.51244329 319.200439381 -406.918219113
-96.2546758269 -189.200936554 -76.9259221388 23.9638579887
30.6683944823 124.575644254 1.04423918266 -348.387138462
122.776194805 469.266343184 12.6962844985 24.0568456038
3.2622225566 -263.263336049 -3.20066059796 77.5277692546
-296.675841125 60.9250433122 -175.355137374 257.564033482
104.116084179 -580.6743612 94.4352365465 317.336865005
-158.123517716 378.721882361 -273.294886538 -181.171260228
107.33753328 234.822305411 -102.396999357 -165.291677208
326.490997667 217.793985181 17.4003687065 106.829770252
378.71348967 575.320101807 -456.744225173 -44.1864306449
24.3487942343 139.209041235 828.783919142 59.2147122767
193.125456971 -130.462755242 141.059893434 39.0306109077
-228.412551763 -218.442615161 125.596151323 933.109239992
-416.106932499 -366.351104245 -263.966520396 -478.893131174
123.342445911 86.0176390257 20.620640895 -544.103109572
98.7071555558 65.1252784056 -521.923756557 241.530227927
-236.71481221 -321.010168243 -6.07693490331 303.198639897
-354.748769485 -79.0832058934 160.471669264 69.8682048954
268.887416899 122.759775751 128.877710294 -807.208358544
70.9868184115 76.7299478553 258.794039015 -66.0039317084
367.744690609 395.232098629 25.9069601678 610.417881436
-192.020536923 -271.557149467 -183.120986098 -314.179392033
-174.754383485 -100.775316698 -72.0195618587 -323.654314551
103.353740158 58.8819712246 146.225483916 414.132739929
115.868181197 86.442450875 5.08558541785 236.063253688
20.0667106978 -244.335743292 -67.4227624692 -451.682756677
-446.160696745 -115.04450082 -521.343970763 -87.0187100972
-386.049698609 -616.669635261 -209.010335621 -78.5019639753
-83.6670691752 560.424680485 310.344432678 214.293579368
677.138554039 393.136509169 113.480528079 3.37023980797
-448.591048519 -37.5596813451 66.1524252162 105.14150567
579.723415361 83.5645129434 283.436940686 -3.63859213769
-78.1451852186 -91.535807599 1.58528688444 51.0185977684
285.986768489 132.443018953 -153.63220228 -1.12490029531
112.235501251 -115.587932352 154.185105142 60.3675717033
-241.618382873 -14.3716101814 -111.213584543 213.752457151
486.292250024 321.367350607 602.244042093 224.633700165
95.0709961533 -44.6449570096 114.92292095 -382.517933297
-597.655376166 -363.336716154 -473.247148378 55.9382383208
-197.024570942 -292.063219694 32.8438701575 56.8039421444
163.774748009 23.460400954 80.9851983589 -582.869026278
158.959881168 390.736576435 196.616389892 164.09615367
-234.482954747 -597.438147149 -260.392404127 139.596592732
-217.349728226 456.592887808 -521.475726435 -278.771207359
-8.37185139691 424.025186794 -274.713066304 -302.351800593
-185.763571104 -681.447486485 -59.2283392045 257.6592836
-73.4967239347 149.186046093 54.9767211681 518.754421131
311.237042628 -148.475419204 313.063267275 -179.506485725
-83.4707122421 201.181899004 114.329424506 -116.476115539
204.784714998 194.627044383 180.006149587 168.200881322
425.210745049 347.893401221 91.5863167342 -159.827006693
92.2782013559 -227.187335256 31.4623073693 -92.7874291518
-569.065245088 -361.048018616 -462.429313568 47.3127924419
8.74268223789 6.88691744743 145.381815987 256.776844776
100.6530363 46.8504044621 -263.275029857 -27.7174232843
105.564309774 195.405218901 21.6913252301 87.2420310982
-84.9175942679 -191.838299814 335.9211632 235.408669548
-116.028204417 -41.0507894877 -57.4921742629 315.355099498
44.9017138127 45.2301143868 278.888310143 -469.99259738
106.64195441 171.091674793 27.6102654672 -129.825913651
176.512825224 -14.902417643 153.664842172 -245.801717517
365.871660586 376.881384174 159.899969403 65.0863345302
-483.617787728 -388.927224619 -380.251240993 611.979001951
-718.395819712 -268.932260308 -452.895449214 -186.625279274
205.897279853 114.611026877 119.241596372 -108.569947714
196.368147609 -497.066438338 94.3966322067 -89.6583172003
-115.327100308 -3.89846104614 66.4726073354 -389.604449295
-168.81548564 19.8015002986 -520.750459079 -52.9394418266
146.800481346 375.599809197 364.84593163 53.2483383345
57.0606337537 381.389970096 -197.567561341 2.46321559688
392.71329016 -567.624024112 787.644981656 -371.540938411
-145.795609636 347.188242636 -46.3352490493 147.717598554
20.1133147715 312.080638971 -416.876236636 263.954425099
-18.2338215626 17.0266296687 243.631247542 281.247637873
-108.759145261 -123.277390771 -69.8729637074 879.033465829
187.663917372 6.82909544724 229.941238109 -607.704048636
305.246576244 84.0231984915 66.3036325715 -331.100565067
-509.240391075 -333.803940509 -588.731697555 -284.354244267
219.261279926 -30.4223229407 -79.2241690451 142.025337291
139.431674624 186.422030148 289.854782706 52.5035292142
99.719811069 738.74466085 -212.241366453 159.461816187
-345.729830999 -402.272648399 -166.702962304 -148.937871979
-301.931818836 -854.767101566 60.5716286409 266.511995745
-1.51764622296 -89.7657382074 146.55088424 -300.826887784
38.9975054379 -2.93785586453 112.765831984 -15.2728128633
60.7818893546 122.910312368 18.6682150394 367.353230076
109.638723623 25.1664493047 -7.88233568122 -216.387046861
250.486706802 143.57625837 -368.492585271 172.925579333
259.73805201 389.549443721 637.00063368 -99.5694538555
-10.1198736794 362.876979739 -619.606358407 -14.303936441
-148.520004327 -150.801222232 703.993732303 60.3816412547
-268.295531193 -313.157744909 20.1253895734 -75.6864299291
-114.035847958 -96.8036281415 -112.140338938 20.3831993962
-71.7155820008 212.200334769 -53.421502846 241.826538726
361.635790841 143.027044777 303.036564467 -242.609547285
-125.111050701 -139.25900619 -290.717130864 89.7496315307
449.749932149 318.545122759 -112.245401991 -105.670197665
-511.407114103 12.8011891965 -351.951556107 251.729834574
341.35416521 -388.209292355 155.447600977 -125.510409416
-791.772351557 -619.029046671 -272.951181312 -289.510177318
401.990614171 629.573610565 -71.0202127479 726.146684039
102.304509719 -156.027082894 224.430457307 -287.835945447
33.9497680936 -202.249485098 141.610408715 -920.875558886
-228.262800594 -187.91144669 -22.6447570063 -75.3005338343
14.2791605907 -82.6320710744 21.0051982148 -180.399922679
104.694137051 115.84312123 -552.15871947 516.945748317
-52.8914855124 355.393961667 333.458746063 -79.7183704419
351.192719638 -538.327643827 529.111046197 95.8827191863
-177.917542619 425.435294918 -697.43357503 269.350420124
-288.470283875 217.090434481 223.584232642 31.4126961797
107.292065122 -68.5211909867 481.44511565 237.354549804
-68.4909050974 -107.16415215 86.2098121649 86.3637338313
-13.366710868 201.989211185 -49.0088875116 -63.0761592389
18.5217504961 -105.333072424 17.4030921692 2.45925734734
124.594565604 54.3681936915 98.852619638 -292.54402078
357.381732224 180.207751484 -177.725410489 307.808715917
-21.8369109022 132.756820285 22.4398504336 -301.355476
320.957689312 257.35615233 -8.50652128596 537.465753373
-464.919512125 -480.656665728 -346.532316771 -523.782571786
-448.014897883 -502.469915335 41.2479664177 -218.381553568
49.9710033153 80.3374956181 -7.50543843477 38.6211529506
26.3415803698 66.0408616946 -16.8451985977 -85.4408669603
107.641700557 -83.8296972137 -323.012171816 -52.5954382536
-113.037543431 505.593918353 -489.614046748 146.65738543
445.360249786 320.923997716 913.705208242 182.567764629
-244.064013983 -477.133330116 37.9887012759 -309.067832716
57.5886564731 -127.976178752 24.8725681562 395.47031884
38.7425519397 -2.30121547228 -19.5090138994 -8.69802511695
133.725830407 -84.0207855961 112.381809718 97.0813422206
238.690763702 340.373042674 246.970121265 -35.8070620213
-157.016566234 40.8672490057 -522.847066096 276.514614559
269.717295068 -34.636274818 201.996445076 393.636019239
-338.259327473 -21.9170677451 226.905656517 -909.068932647
106.453050168 -168.754457981 -159.661522402 -633.20990508
-132.591472018 85.3211969825 -150.247662148 907.916273873
121.807138112 -297.098092459 -161.335539223 3.89430804238
-487.114717773 -80.589939203 -101.104836607 -197.121941754
-324.204529348 -155.99507075 221.287233428 220.201956632
-87.8342898495 67.7211241591 54.9683097479 -529.259986099
92.6978498286 72.9821711891 -24.7184158952 -81.1047539584
82.6623170275 -127.003114936 -9.76067383934 278.483979353
-7.8972454956 99.1406827166 -203.154951665 -80.1466528326
196.986575324 373.435902612 2.15173953523 274.498767565
548.236665877 682.493710952 -472.520915872 -38.0954044621
-24.8295114051 -207.140128024 462.741025805 91.5958158908
-334.488490951 -889.244716575 560.795469995 63.4450012826
-399.894055272 115.732072201 -73.6118860235 -191.905317935
335.739048752 -83.2608664993 79.087213334 -185.443062039
315.112605472 110.130759131 87.6086957251 -1.55596398795
54.7153042143 344.497906401 -116.639490846 133.865517486
-74.2228465894 -594.317111052 -3.45366260912 377.981539366
95.5906619198 728.705564449 -126.60312304 14.234874661
-179.717400775 -830.268071519 -225.167789894 -193.264591462
-38.9087757946 313.409573438 64.1592841655 204.445529661
67.285295011 219.151935513 -104.296705872 -636.79594324
61.450222438 350.660890994 -158.882332285 -159.521384406
-286.202195309 -498.247379755 -27.9469719779 18.5847458086
-29.7915026007 30.7978974863 -130.17759198 276.385409389
63.2655075809 174.436848059 236.331406464 -77.1410319428
418.370660878 260.993054904 235.777685105 218.823011677
-264.768502833 211.961573046 -143.329549366 68.7120017789
227.809812511 78.2554372859 -583.196897407 -38.8637816508
-95.5576084885 -142.943509394 866.54834739 -122.637349664
-37.8242104734 -319.194389755 -100.75437421 455.702552479
-173.593249926 4.42423506729 -472.814960035 -84.4842070012
-171.663699129 -237.364726073 361.833247215 12.4134293482
-106.686990719 -57.8624302087 184.919335162 -371.487292598
-91.5843776472 45.2217561394 -57.4155940511 -83.6597493343
186.370927654 197.654585037 96.0387650513 -49.9289602296
141.724891649 14.4161346455 25.6613517763 -8.05803437892
151.940344244 161.236892336 -290.672436083 128.151198669
289.157490548 -228.299913525 -264.649997198 178.696678547
-689.251669885 126.309458278 142.746327899 316.350745392
-36.2430950071 -890.235908277 21.6010149457 107.987963225
27.9659955248 264.685069595 48.1302802189 -301.858851828
12.6756926463 177.460396042 212.396322324 -6.96456532242
-5.5390507411 94.9291066648 -10.9815085553 -442.436138947
77.3552585863 158.123238723 11.7057017822 -10.126818638
350.366853782 137.132594562 40.1027027838 86.8647098939
294.650957453 581.233525158 -386.058632526 428.06361024
-264.469328098 -424.137653741 81.2456240642 13.1113172764
-135.495269895 -173.318745235 -15.5449104531 -431.726916964
-134.395434372 39.1253023473 -161.03332464 -13.1744668464
381.983912909 192.083145636 464.002008857 129.575590006
-143.433487413 -207.072596066 -92.7488873122 321.641935006
-197.674614858 -581.982681432 -102.015599236 -248.69006139
-416.096594928 365.049394698 -177.347389455 -0.339361765065
606.183546086 222.607692766 389.186251882 -148.384606507
-79.6837795981 -285.270682053 67.1629418428 26.6946944003
230.011788712 302.199665809 -7.98490962889 25.225418015
104.675825502 93.2378723086 -102.757951227 -87.7264786304
93.2482256298 278.42040724 -109.175861968 29.9643084928
-237.458505748 0.22927427241 -82.5263140629 735.313214265
-114.393787992 -194.694163877 -315.546793115 121.46219008
-122.830612544 -253.94204528 310.826540495 -1261.46368962
145.474787469 -2.55971678802 146.889912322 153.310092348
-259.645920513 -413.54205079 38.1907619592 -2.99220694661
-468.914936581 117.232801239 -192.692333655 5.21285021744
416.541064892 180.608739483 27.8092615733 -83.4710818098
58.5698616201 -66.1136100061 -253.061000529 108.35823826
-6.54596860278 -32.0178842829 419.341425511 549.246209305
-126.857683425 -96.9829878564 75.1583394653 -100.568872184
-18.4703731383 232.739511846 -32.1988860541 163.686634422
255.947628983 -572.417959009 -145.62971088 -137.753846201
24.2656188174 576.173592926 217.100212733 77.1279723284
-14.7368615644 -69.2258095725 -287.954028345 17.2487965111
170.755563658 192.203933886 137.247623184 -35.5243342182
-585.837399961 -120.547571474 -556.745491349 -76.9062068629
451.309030033 49.2559040242 897.983848765 -210.101132921
-207.912068423 -76.6268604285 -23.3902211655 -226.540210124
99.1849295899 -91.5487241351 -32.6161760849 352.157995078
27.934251892 233.195769109 -199.887672782 342.943189745
-85.450531723 18.5546743834 -58.6293857069 -144.714528994
-143.352037033 -141.260658332 -61.564431622 -59.9838721522
298.618760527 239.587525789 -10.3147405718 -156.830105453
-8.31712201965 -131.875128149 -96.0631768234 236.103828131
-31.5167387227 -13.1928575873 -448.621566867 -309.079851092
502.2882278 363.524440069 283.443633515 109.174733359
-157.992158646 -505.042502571 157.13086355 141.573381649
84.4220480908 447.129233323 -183.955109401 -671.66277134
-517.577817808 -403.843321606 -230.046336904 324.33603849
-218.773350979 -4.17786099571 226.766665706 222.739008164
19.7126574481 125.204935972 47.8824022226 40.3708593781
-412.730645504 -52.2379399915 -48.8505368675 -52.6098497762
604.985604037 -276.317244406 378.14631857 505.368964182
-120.16302683 90.6041348373 -226.009630515 -219.400169695
83.5440018199 213.791240072 -111.673756687 -563.408045689
-7.03953599405 24.1606213368 78.8509926559 -4.30622719818
226.548796519 -81.0938714396 251.545227094 200.521995234
73.1728761604 155.974155631 -67.6731324267 8.13415856059
233.594900624 -81.4734725132 483.031640742 -154.443266571
-121.194269551 583.375886991 -156.923805602 -79.2707576394
82.8805821554 -99.2728763207 -542.416615761 133.291123424
-442.702702323 -560.207492056 -318.295452742 -166.865908183
-217.863852362 -57.0241674352 350.831816426 463.550617734
82.7438353812 226.300869844 367.645078678 296.734932124
327.123549341 173.671714539 39.7645700546 1.86691392223
484.529701539 429.148655336 -204.421430057 145.347713347
-573.038863476 -708.591921582 158.683052441 -833.773307327
-121.511845374 -528.587743962 -405.749878708 -135.769624123
141.546786912 248.146094668 511.168267855 -86.5139737125
1.07270523525 -218.486978894 142.966196523 -68.7176355631
-306.117822856 -1.88952505187 -212.376051719 232.34104815
-287.253615085 -33.1795730634 -409.534673167 414.777444768
664.35109485 398.498441699 15.1314052215 -368.572803605
626.613883369 391.686485401 328.910069499 78.1207367906
-762.512479936 -333.745467245 -234.277671987 36.7016511145
-223.57925329 28.7065695446 -78.9483707744 -0.414745180861
252.960890716 438.480980831 6.87668193881 -39.6461129075
-63.8675256316 -354.292039175 -81.2775007121 210.002463147
-170.729115611 -73.293828264 -121.202768887 467.416532782
-23.894252119 77.1860633745 -28.3041862951 -126.734482692
332.994419917 366.534956185 59.2857912822 -207.326622619
142.888525489 -449.880031022 473.082065413 -207.025547103
-143.393679095 -192.129763486 -230.726005107 -16.5166922513
-292.342605795 -142.326561452 -263.73568293 -13.7396363805
159.328763778 97.1102400679 292.626005921 86.8317892317
-19.1122295366 96.3664513857 74.273441012 -214.217568255
89.6747172121 -309.852017189 68.9311891206 -123.496490349
294.740155594 132.470124228 -136.671637933 456.208378841
-329.127415915 68.9353596194 -21.8161893189 297.641274379
114.568189139 269.752862173 -39.6249490079 -569.701107387
-418.225166003 -265.451602276 106.371336604 214.263638149
402.441517698 296.715949254 -92.901958197 -260.610094428
125.159279806 179.983522218 133.983047231 -27.7100450148
91.8043569325 -116.822291651 100.564487119 135.702958764
-43.0579074639 236.746801889 27.1812200356 -257.302716992
-336.853492601 37.1889330958 -104.559841764 -46.1475675734
-278.639113933 -312.466464693 -89.8876298746 379.158979223
-32.279182558 -82.8487067905 -103.710062376 1017.58523493
-36.9925344679 -219.552378308 -333.557219354 -79.746488114
61.1329060446 179.210382081 234.312327472 -1157.51348193
419.972536155 95.7774381442 269.676542335 -122.481344784
384.690075308 525.658694458 -104.691212213 110.168538302
-155.195362454 87.0595161729 338.726825844 175.954585735
-511.000456276 -644.008127532 -207.283270934 -90.5966689438
225.833854386 -126.43991584 -283.22713306 166.069182423
70.5481709431 137.374027404 -7.71435971348 -180.015188295
-9.02913449327 -114.222956656 366.876092403 251.271143888
713.823190468 329.616115991 -249.716756813 16.3391847772
-219.202808625 563.459716164 99.1859775578 114.870381776
-705.452538601 -893.843652444 195.858392376 36.600703168
-164.640373658 -246.585612305 -216.154088257 -46.6960852952
183.051685528 314.876637723 220.826823821 306.076499891
-76.7760116346 75.5014441236 82.9976352189 -210.553360186
34.7997539294 218.999957726 -134.102203571 -197.21426157
42.0717731327 -290.026823064 133.838198059 2.62504634139
-245.454934824 -438.164886551 -180.493424165 -12.5164005021
25.1476101877 -59.3529940645 -161.76465614 -445.789535633
132.188918323 274.535962597 32.4454380058 -82.5811155971
192.215898128 273.38967775 -49.1260750795 -96.0907373698
306.035398124 107.213114267 42.3193089455 -93.8746285205
-106.457487115 210.038852677 -102.195059961 393.592261973
93.9165123778 218.401746166 -30.6302899205 337.097933927
-146.312384955 -519.941137828 -166.191739433 -233.74040583
-448.102219238 -471.947943852 212.785991098 111.447754204
272.653299191 -356.176516236 155.817493727 357.542103337
-239.686555659 18.5065897484 -354.687375983 61.7747496648
21.0587263736 346.037056539 162.718195464 -368.27406615
467.406582692 336.189864953 380.530684677 -356.603851429
36.0088068965 63.7198916628 -210.909833241 157.978212542
-324.489138023 -139.284875076 314.34135068 260.953625533
115.3692455 118.802268716 -15.5873992407 -143.649194158
-68.8133853034 -133.08147051 -256.987155895 471.996155868
92.8046030673 257.640621127 -64.1516801384 -685.690084969
26.3994349322 108.395539378 -128.055948918 379.677017916
93.4902078725 63.83046756 -152.270403127 -299.412345548
-93.5312371289 -80.1849513932 31.4143335636 -30.9036502276
178.24446379 -203.55342288 122.621663154 162.296674847
-25.3715512716 128.408415452 142.225624653 -264.971554687
-49.7788829599 130.899091396 -93.0756429011 -252.007147533
67.124055167 19.1118047684 94.2929733235 136.165526721
-64.3447561874 434.215282627 -603.407909606 309.624176138
-351.219152212 -817.223334339 389.026776345 465.903473288
20.0238460158 -114.116222008 277.245826924 -376.373480986
-121.300321082 -149.921461124 -32.1809537627 -314.953387772
-13.8277702367 -16.465691639 2.89689295225 -87.9013803474
230.303009268 230.169449689 100.560958916 222.121716357
321.658713619 -247.139534041 149.258087156 266.263195778
-300.247070637 511.365563932 -568.773753676 169.809136648
-198.678147903 252.287013575 195.609932893 23.8420351986
567.690285219 162.680502331 249.368738072 104.476548924
174.754047082 316.679878425 -337.003067267 -2.86963960836
-75.9059028765 -567.009808351 145.498716584 5.97613388766
-526.658368482 -140.505863577 95.9774866767 -124.012093838
-36.010921699 -277.905830646 8.2841885703 -4.51441461836
67.3909080982 62.287535135 138.452521607 -187.231546338
156.513847354 205.575315604 6.02261392918 168.08721362
293.900830169 119.230526537 22.7012298614 390.773496601
-402.442469943 111.193070934 -480.658482684 61.6156257252
-57.8776183482 -328.43201437 269.627042947 -1171.53086432
-308.260201601 -459.020416771 -180.728747748 -162.561967145
183.857860803 128.826108346 -21.8263910312 -71.3209932469
-105.470283162 48.783530751 -385.012616335 203.721765793
140.200394629 170.483749715 497.537258204 30.8746759757
516.203170969 69.9373593172 79.4745661727 2.20759405037
179.772402492 405.008244611 -192.953721128 1095.44961464
-640.119555272 -375.278450023 234.297041916 159.41692979
126.031608387 -206.224632155 100.576273379 -739.312444753
-141.868502611 84.7291025121 -132.449254395 -278.452678884
345.914772114 392.160242068 -266.735386995 -34.8844261829
-275.675348747 -107.257269154 -26.1232764631 38.1718373055
-217.253409225 -198.394400478 57.220135514 108.870391103
1.39376649607 -79.8495889067 154.664697842 96.6743902826
-18.9376818011 -50.8707969683 -169.982029227 -16.7718817747
-220.430074899 29.3111905623 -61.7235352158 296.977020721
398.467548256 -24.9141884857 177.608974181 36.719244207
269.06744321 155.490214189 41.7928271072 661.795761319
-48.3750413636 3.32790975783 38.9107233418 -489.930377215
279.006562269 361.824738753 -346.360224574 -430.047703292
272.129899767 331.838493871 352.047250523 139.241657385
-631.89086234 -497.977369456 -385.90063392 -330.021178959
98.035054941 56.7386390238 712.148375706 -62.6908538867
-184.205208802 -564.087355595 -62.8046622769 -160.177202321
113.085360309 287.933085083 -249.134512958 95.9999259765
139.300818292 -154.39543402 -106.348252822 128.791923672
-293.234156247 400.24689125 36.7683901453 172.774837937
-61.3728335335 -138.755072533 78.8815303984 116.75903583
-47.3076579689 -283.372500338 307.64644444 238.148425266
124.479906834 112.286702704 -60.8591885221 -501.937781304
135.928297625 199.487773173 -121.987923785 28.3458237531
150.407817857 -254.914317075 9.50885126176 89.197940663
-347.672758563 139.708224202 10.8460231011 -149.360943268
159.854721396 139.041557743 -153.356436258 138.528158183
-278.613379729 -230.244199073 -69.0378129643 21.8210877665
172.844915825 -48.3944470887 66.2948325135 4.77236493247
46.9459053146 3.7111877902 -109.373623455 186.437949575
45.9801743891 61.6620472279 161.207015482 374.880979046
212.01371087 243.169396703 -0.737876742392 -361.743898771
147.104511584 728.089508261 -291.740802585 233.269733925
-2.90571530534 -826.428760939 -57.3931435515 1134.65775784
-413.58442625 -638.997252904 357.967004987 -1478.26447677
-52.4727642081 -35.2950409522 531.48580732 -411.228024825
-173.659273599 -13.0981479153 -182.38633763 -151.224749135
-0.417760391187 40.8760935181 -88.5626808352 -61.029975034
82.458259198 -143.727591945 -55.1584389443 -107.176232766
133.602013469 853.046055807 -87.891884659 -5.5265614402
251.494978192 131.587313019 -123.011769751 189.737590117
117.53265177 152.741305551 -257.357664673 419.241780881
-179.437632318 -441.290130973 -224.535580517 21.3661435854
-274.928939014 127.75017575 -30.5398026707 269.129086645
109.496979937 110.47323768 101.101328077 44.3362960018
167.866188838 -14.6022612373 -20.2935950644 223.960867941
-160.28939345 -136.631219189 47.7951951706 -184.23459437
-147.607471471 -172.71782938 40.2514753656 -527.604553596
35.9272026788 -63.9394492975 64.0600824938 -148.225222836
72.4520707984 -67.7619677478 54.700852479 344.211095348
176.866284412 403.659915025 -31.7758514777 129.986510716
-47.1440535607 380.766107768 -375.514083956 12.9055360029
-101.505804385 -554.332995 -419.82319855 280.660553935
80.644127519 -186.101721171 970.475340265 -208.198169197
-32.7643175964 264.771245262 -82.1807647474 -35.479312017
154.864563522 -308.245470565 417.830519743 -45.0686884176
-449.730518645 -283.687325268 -12.9491265397 -805.617888641
-308.249052471 116.560470277 -198.039308987 132.499951718
573.523198645 495.095232552 107.910145948 107.290234077
-166.718992358 71.5286353723 237.7812221 265.283968506
254.459643135 -52.8675849082 -140.706792546 81.7434409362
338.044874694 111.797116279 152.906514942 158.140935
-472.863507966 41.3820396379 -459.766188107 226.79164549
-181.59089492 -145.512896037 -474.28987376 38.3372129105
199.825943538 -240.479830254 500.815070171 -527.795892454
-161.519034367 346.493452275 -188.075140221 63.4295976751
-122.715520218 -428.814338404 21.9383376488 100.531196921
437.403898326 325.934957056 164.386352219 448.4837098
-14.2370378846 -38.0142871789 26.7789338556 274.425961934
324.588392674 -593.123934421 -251.139702004 -83.4205009828
-453.407454866 548.407901689 -465.034035909 -976.563717407
128.419288499 256.252012801 291.267492852 105.530419259
12.1541722302 -420.817035407 494.426103566 193.203806965
-78.102653939 106.294350084 -37.2542250464 -209.765376194
76.6300976922 106.978740964 4.12289607329 -51.19676453
-133.745124583 58.6718294261 -32.2500591061 476.300579863
-87.0957109504 -28.3038843884 -55.3994805649 -712.610611666
-2.39362059576 -67.5028160439 17.4650586153 17.5176381875
96.6940763015 -136.582853783 40.0354408594 157.678592386
-372.031836651 -153.258198378 -195.196806368 217.324826458
764.076806767 330.871498922 92.0051678194 112.623895919
142.93638901 50.8570524565 71.5643529771 242.048935674
-197.787023771 366.985825663 -61.8290510709 -6.536610506
-4.44020215798 -80.5554709358 14.0816093802 11.5572051278
-37.1361112018 -70.6637766724 35.7941189977 -40.6140699697
-240.666700023 -154.948423835 -76.9446907007 -16.4025986525
-189.377703695 -483.634707175 0.783306146374 -47.8110665658
-44.5447384874 79.7739527829 -12.3627704254 -65.6515279948
106.135523401 -8.6030537027 43.2179387103 2.76495155841
-6.93027266539 171.969458857 -91.5730093126 84.9846385284
285.466503141 586.608312527 -444.200835046 250.536008234
-316.99317668 -796.844925248 163.197957893 338.743297926
67.2723459111 231.974963311 690.453729026 27.1632110773
136.946045305 211.462752145 107.059080012 -1013.18596078
146.659644693 -49.3912396193 119.782784941 -34.1037411492
-215.756454975 -185.968697401 -225.154864367 860.049177293
92.9424031794 25.6431046324 -151.355073342 -38.5050947245
1.00083232479 -24.3654273504 32.166060301 -31.2059988723
602.42502085 486.189562192 -138.871280409 -190.008909384
21.0923811476 79.4245448983 451.092745444 -897.984420316
-871.740990564 -490.448470126 -472.484456546 -179.844923599
-98.6058841517 -63.2172031798 -133.118824099 84.7753064128
-108.743928771 -568.656750667 -43.616950248 175.391262881
-36.2657784283 -22.3867917098 55.0908272207 109.545763456
8.37589554965 189.010771831 25.0707680447 19.626077487
4.62196519311 0.698651724967 -27.0478560336 123.355748263
96.8959831162 121.647887394 -404.076845777 205.751472245
324.012078398 188.581862033 447.419950619 340.084620378
-157.841082753 51.8624759924 42.9647553469 313.914130651
62.3351005268 97.125351092 113.557567111 254.471714883
226.485734168 232.732536142 -9.37242212372 -190.590011343
414.756777418 378.929859658 121.150031355 -361.131840303
-57.0427996753 -643.553607068 -274.932927263 -28.2427621149
-157.294497176 -14.2574938385 305.26648484 -62.4618990765
-480.303676829 -206.311771431 -98.0451887355 -105.837653294
2.98044692052 -67.223150079 72.2642397165 -217.702610662
89.3094572337 168.976429979 -133.98541325 -21.9587426525
178.519906684 249.154814387 -15.3458898821 -84.0359306713
55.7977535761 123.70563195 -138.796468143 129.214412064
62.8526034579 142.883422815 -175.725851272 208.106376482
40.731077839 27.3328407633 494.61863141 222.342013938
-262.697565631 -405.314516646 -27.5390566924 44.7303722959
-222.928577964 -499.304388715 50.9119435527 -580.868740588
-55.9746312007 289.710633819 -260.35214631 -64.4905730032
133.336060072 86.2757482905 -118.56820317 80.9929371177
0.764880634708 132.990648109 -104.146511422 679.267324333
-29.4728215434 75.8206270918 11.7272958462 -8.7707289451
-215.11836235 -375.057107742 -96.8424846965 -253.323150309
297.620682761 625.743945814 296.582369945 -575.298329334
-233.003840162 -25.5514676714 -694.59406517 -282.412185499
368.161903853 516.439773821 533.687296866 214.221723488
-35.5106293077 -174.357508599 434.864559906 241.245687787
-140.489402714 -464.37818231 -362.671854023 -130.679269171
209.780223059 -13.3485274759 -52.1774028905 -89.6310463821
-187.171328087 -188.784640303 254.081945721 194.486162945
-6.44734409284 -90.5141685814 144.556981412 -5.32170192881
-256.2931868 -130.157315231 -68.4003815618 164.88892402
369.432407378 -61.4850121278 112.440493713 209.584172904
117.077070834 85.4660237285 -13.6587149253 43.8821097752
91.1733484205 83.7171529915 -223.731219742 237.533042385
335.853648364 218.540352527 -197.088752228 407.935910176
-18.891828914 13.3882846082 -36.4352333135 -577.588421217
-36.3306235979 48.9062702451 1.3742881032 -110.515667276
-614.202895444 -291.541098414 -19.8884264942 471.837933086
-196.211517788 -144.351272571 44.7568484432 -612.142625898
-66.2293710076 -153.009119779 109.965708248 -9.29628820369
45.1487317168 599.140129349 -70.1307574034 -341.546600747
192.836273179 239.960978623 -451.594726885 211.722794517
-44.2176378082 62.4817012124 213.647079762 149.537360669
-502.326532917 -657.422840203 113.731582953 -219.253476184
580.410370757 344.175366456 408.556372547 -323.288431683
29.6811748471 -66.1141100939 211.672819384 29.2367496565
161.564597364 31.4932659427 83.6685926781 199.494146783
98.8288887849 -115.032333734 -15.5447531199 618.48613399
-1.0474376984 -53.3012823278 131.533910349 -130.829496959
-58.6770865956 -462.784977453 -260.07954876 -146.339498363
-82.4707938628 49.1226795411 -266.200717967 -233.925799674
-98.5309126917 114.244914754 -204.701262661 65.9165085711
-52.5855346468 -381.405775959 -17.8238520173 -1.11175520477
179.403893387 767.931506308 -365.951815937 4.35478503579
-55.0718507018 77.432162462 86.508176435 115.180946939
-110.1309782 -178.459546124 162.802115519 60.3175767683
-137.736768368 -154.595578046 -18.2441924071 46.7988014668
270.349088189 168.365500416 186.936250561 269.07522426
233.345340967 398.887218189 189.43954764 -246.304577406
-167.402629091 101.621329762 -299.222213825 -268.942411836
-59.3557519287 -533.532509993 149.942043446 -52.201392399
-171.777330912 246.614922481 -320.057088211 265.603813571
37.5609801152 84.4609982911 -163.819419331 481.931489281
192.578541493 -67.7760773371 16.7434412233 -172.661087257
191.967806443 37.6220988948 -119.861694843 -119.731058721
-144.364626096 -68.4624949809 918.654028303 42.2731707405
-614.818147665 -557.230881476 -7.44866055472 150.565892379
-15.4903001447 187.479607837 39.5959922378 -293.088341395
387.270111082 597.132068071 29.1825541085 -300.924073317
146.188426519 -59.7456832627 109.587394067 -52.9917622734
-149.244843277 -203.495807838 -11.8392071188 20.1789557166
-12.8752796717 68.2547541124 -116.363848352 -208.895558708
-140.531154762 -299.397185333 -184.510956511 512.862519023
197.956158591 186.033394258 -71.2731295949 16.925662125
144.089930077 134.453100688 -223.3398299 -513.811980011
117.676235606 -229.925176255 135.755913108 87.0908078826
-53.186247133 -93.8610251141 22.1317598218 99.2804873137
14.5237871991 -145.239337582 26.617559181 83.3753641627
-91.4870184644 272.688282487 -230.32309053 -2.49447906969
-128.859387572 -0.583470435341 -664.37052159 -17.7644489017
-157.833801739 -23.0317581961 915.05993679 -12.0741854623
335.110447411 99.7743987491 117.175714364 -235.390798774
-20.1244997596 77.8974587514 -173.533349779 186.458990024
41.0235294136 -139.883608127 25.6057129022 325.379265107
-33.9716581015 190.16578574 -96.8000819323 30.1067284184
31.0314218371 86.956706602 449.024806059 29.4808021197
-321.70622804 -456.022017919 -100.053797621 172.583889477
-247.799677078 -646.599750625 -248.779992635 333.303557855
19.1384186932 153.028548278 175.787066999 -563.747556859
-403.283692205 -23.1029462021 -443.144472244 -114.037941591
660.747797526 210.745683254 139.599812616 -28.1915025108
364.332675728 351.533758461 199.055508034 -53.8380958936
181.44113935 268.8910037 -73.4913044135 223.557747116
46.8362922508 178.89992192 78.2357967547 -94.660210823
-373.395047073 268.094689128 38.9771037552 -73.6703805405
-259.542409173 -239.614707408 -115.459900345 -662.815263197
294.942479116 -72.2109907039 0.0856706803257 37.9058215293
126.601357552 -291.507368321 -23.7583550726 250.474527378
-404.376212786 194.110827053 -31.3322174251 312.208386362
-103.598258535 29.8326759746 -101.753461493 269.215421124
0.175858297067 49.7540140221 -651.12974304 -159.437985056
432.255416065 372.364992467 404.839785009 149.465162254
55.0241792665 -35.0286150133 373.6138274 123.282649214
-287.866123035 -962.477564436 325.217273095 -341.480061042
-98.1179133785 17.5079403507 6.09065494782 44.8227750476
-169.085805459 -64.2680310812 -278.819037432 93.9714563054
145.649413326 43.3364288014 275.790464417 84.8651236212
28.3585514568 -383.815546186 -93.0945854501 386.195329579
1.07852406082 162.627275416 100.649850559 159.533702287
-27.2488870268 89.2213099951 -406.290982713 -605.686961866
160.450905896 451.45595444 152.982272468 -357.613238418
569.132357757 174.731455674 105.812004528 109.133785022
-232.668895674 -481.502674859 -126.276725409 -256.394641962
-208.535699123 335.418606233 -138.624079823 283.531380588
-172.11578485 104.471115328 -101.788231266 -197.85755271
-55.7005482742 33.0050125772 10.1818014354 -266.934546511
-64.6676761513 25.2645310405 68.4154013747 117.808027008
2.38329101111 -152.150920142 -54.1802495455 250.944367428
177.882893986 74.3481477393 -172.218696516 25.5473389998
412.507132063 551.896685498 -152.902591266 -93.3191075618
-149.530432163 184.397874705 -217.64750547 -93.2217587448
-180.913219057 -487.594250574 783.685236511 53.6522267995
-36.4060982335 -141.343349966 188.292963453 151.17775502
-93.306749636 4.04337488249 -182.393247476 273.732130496
-170.745382901 -347.42229185 85.1250618448 304.335404668
293.738524138 351.656223645 141.640276491 -393.783113232
