86.9133757917 43.0435876928 219.16908949 -93.0585959698
-297.737711644 -206.180135565 207.56211782 -63.9887460712
-140.819705667 -28.5630971659 10.2878122884 -17.1288891819
-379.964953961 -38.7938464378 -38.4127733981 -59.8821148755
334.482625499 -82.6064054677 140.439896819 -14.3523162398
106.351255625 -80.9627555259 -32.4284727624 138.403261784
120.226862093 -253.301704357 -83.0209757602 -8.98611486112
372.212802982 770.58197721 -144.670055911 -44.5524211232
8.17922989506 55.9810909972 87.8004313086 90.0423594513
-370.324222061 -422.283235931 -26.5592533498 -162.576810983
-58.8936955141 -62.4201155114 2.79525453074 52.1882379209
149.422744317 41.8753910172 104.232137336 169.432436529
39.234263799 74.5949456077 -16.6685562455 17.9794281579
-126.009081009 -229.892726943 -84.1143380418 -79.2888288082
-153.099756076 -54.4528960883 48.7464823662 19.5966523661
132.27733052 -16.754580015 -91.5393023008 31.9758041903
23.5734882498 -202.001723869 -301.057807753 34.7700967507
317.10034002 214.079986685 304.342462899 -40.9112213592
-23.1705486391 381.165567422 205.336019179 -69.8853207523
195.719992973 327.952582443 176.446328677 -79.7308919039
-185.116728047 -211.729217996 -195.740384419 -119.608247249
-422.312031138 -619.699367359 -591.303892795 60.0728192938
-531.292634743 584.323961315 220.25601055 -21.2339819864
72.7697202042 -364.182031695 418.548181157 -10.4200208498
20.9781192527 -103.142420751 11.3646215093 79.0404695703
148.715353315 45.6937106134 -137.086328564 63.6099567351
232.354829127 67.6083346183 11.3650305064 -162.566410931
187.829104729 155.045816037 -75.0397668165 117.530427339
154.463694982 -20.7579863245 135.144001889 138.595747558
204.980394706 407.225189106 118.299975256 -44.7559128872
-468.057197885 -282.994203958 -42.9358397128 -81.0652830074
12.5800265455 -172.197719626 20.1177658563 180.3757253
-119.917500911 -187.518809692 -154.988290232 -54.1161059765
198.975321736 -250.173820455 -114.174139485 -81.5048622942
-86.5391228631 156.298499254 -48.2668475829 0.513447909929
-115.754928106 297.162731705 28.0576488081 96.0544755834
114.949974521 -53.7101261051 69.9097467774 -116.912632661
170.776962921 36.401555041 -5.62751183996 -10.777467645
71.4425534761 37.3994533443 -280.193186335 46.9651464358
-268.799400316 201.262060334 225.911875253 -76.9009412374
-18.7417722179 -159.71595942 98.0927995066 23.8794131829
-141.969905024 -50.1011392555 84.1016039913 96.9433403341
65.6563512531 -175.828323338 -24.6724884293 28.0463679788
101.917460436 39.9516458094 -42.9565316346 -121.422696492
239.99530152 -101.170459297 25.9386153241 103.207052738
670.799139255 -48.8218974223 -645.858546425 -88.8881663232
-361.389952254 604.064829958 1005.28603093 -212.175412448
-134.921689263 38.9422216295 -83.0956602942 123.809818425
-334.997501943 -266.635636325 -185.960163881 73.0944070326
-281.454924409 -628.721316514 -219.687206628 -117.492342078
81.3042585911 529.890834474 -77.9456558066 -6.97306611378
117.244708016 81.4236060515 -43.5540770908 119.824514609
136.624958601 -49.7453054148 163.810319761 -31.0427676234
-89.6382620118 -62.8797022809 1.68723084191 -22.2330206001
-387.552339839 -358.69636142 -172.577959529 -50.863155251
64.2555882204 -15.438988186 53.3004761933 95.1396573215
208.866611626 -93.3344187343 -99.3279611908 -39.905806355
182.584613682 408.388468462 149.64128813 52.4221106029
-41.5728669324 88.2531151831 -28.9663516686 108.263530039
184.404632235 -51.8095655336 234.51572458 -115.577207625
-73.6784899564 282.36484533 7.46919117199 64.6888687352
178.543538528 216.65802598 -38.3237646702 -61.6067750348
-32.5494422755 -316.64833708 -262.865463906 -64.3470855651
-336.635138902 -92.7334774811 189.554852143 -7.00120052985
70.3624050191 -361.247279946 18.3447509216 102.125775307
34.5914939797 124.145698688 -36.1066743855 95.7471058493
-17.3161247629 144.110952919 22.9560506461 -220.134420498
109.685566042 -72.1639898589 -53.981337833 -63.2686171961
-418.187684706 -191.818662913 -114.810971165 57.2367258149
665.174749231 172.835422684 -552.580936558 198.477680931
-477.180937496 -238.060023848 584.454131006 12.3090099549
39.8137403119 314.08948476 426.415034443 -17.4586600444
25.7931312218 47.1696543271 -47.8447281907 -7.87323673246
164.580087147 -248.416131306 -47.758572348 66.0331340026
-209.009301624 374.253846762 -216.644464132 105.105616265
-287.734186665 -341.697311128 77.9227955648 -121.981325022
-264.698399667 -117.706485366 122.32231276 -15.5591521577
1.44566483726 -68.840274822 -30.7118625081 -112.545547551
232.91436933 152.391912982 58.5799335965 -27.2694669838
629.167060046 -208.840183087 -353.9675939 -42.2897980172
-481.898007329 734.856902205 93.562366177 -60.6166096069
-170.054522759 -431.489585534 -187.065621359 -137.928343192
-122.156393462 72.4174250663 -210.973707173 11.838243257
709.831056899 45.9653519171 307.003858311 -31.5581743581
33.1178547476 69.2777419176 210.248464948 161.252066381
-84.4956786436 -320.909958405 -13.1339314938 71.9795952108
120.66472128 110.856341852 -20.9930752533 14.5917539467
322.191366541 450.483836392 -93.823440537 157.885356552
225.252224536 294.189242064 -493.72741829 -52.2589602636
-209.480802252 -425.881290849 -150.383866212 98.6083678606
-155.923350991 -748.364821177 613.436744077 -31.7255919382
-83.4064038419 603.288375282 93.9450266914 -111.522636194
-259.120429195 171.567382388 119.998395937 47.9347800179
-144.442365336 -18.8913206796 54.1712718097 90.6553974561
-88.1427860236 -149.068121659 -134.454871339 7.54584672349
-129.777173108 -30.3317647003 -9.43242518274 -99.6958513362
141.887583255 65.7653528476 62.0379611171 10.0437839111
112.988581045 116.346899781 -22.988678593 64.1408512961
209.524283517 139.204026327 -95.6398331745 19.722488369
-64.8191570859 48.588753112 -104.087484653 -42.1219016719
-349.716165237 -438.29961039 29.1772081953 -43.156990447
-0.321673415443 -120.654320344 -20.4526395132 103.973176061
188.127659713 -355.14180479 240.06574394 -168.999751565
-130.724536833 116.63377157 -260.005194139 42.9206960481
206.230362473 474.018025061 257.697468986 -90.6686873319
30.5492631521 176.129873959 28.8539057393 -98.5334308351
-122.175934893 -192.651154164 -116.200141201 69.7803443391
-129.301198303 -104.994047913 5.24862336005 66.8051041368
203.348386695 153.151929637 -107.37645473 1.02081392772
593.152523376 196.520790414 95.9624315284 -35.5595120058
-150.732799646 176.353686973 -83.2658162995 -50.894320566
103.326189085 -15.5880176096 -17.368011307 -107.112208873
-448.65680223 -162.40633466 -24.3934313813 89.5269846818
-414.842767249 -1121.87586758 -460.666950757 -8.62667340403
-257.461254621 -355.459971569 387.38204988 -0.133646966295
191.255722273 627.192985678 381.099259697 153.022913953
39.4499446878 269.734099548 -79.465944186 -158.637031894
-164.431402892 -40.4772455549 19.1207759621 -78.610247979
88.0936612093 19.6445139217 -7.94725225979 -23.1627339552
197.827647525 176.127416074 26.4873475076 34.2387671147
691.037259081 672.38314211 145.463307663 103.747184722
149.581431881 171.775270878 -40.2187913263 -27.7233567807
-467.926320799 -723.951944746 -306.527222956 63.1170344877
-211.467191645 208.735420486 -230.610747521 116.811783941
7.00633593486 -366.056293152 -182.491624112 37.0015173234
-93.1002812828 355.473578092 36.6675372296 95.121739368
-180.797560404 -243.740780601 213.848456781 -80.9621047292
2.39422205257 -4.52697751957 -17.5549008901 -84.1846113585
261.449997577 151.350069178 224.6212236 -117.541691667
537.551091343 502.995913548 -85.5439953904 111.458808268
-82.2905851928 -178.604571037 69.0447234472 -72.0938566048
-382.782137735 -95.7693057369 46.946809961 77.468003663
-431.047004316 -216.775233486 107.313751446 -11.1210351786
298.160277791 -175.22509036 -95.7203555754 123.357506054
101.655951782 -16.8050079095 -57.4106509738 65.8638204224
-144.648252045 -136.133275487 40.0959732171 26.0502732991
107.459557958 260.171449015 78.5567459467 145.331100699
336.81722243 -652.657432695 -280.557098963 -136.367003365
252.732013731 437.614290786 -38.7180826568 -23.5475498669
-403.611878189 765.225305642 241.842506663 -242.388896279
97.0909844241 -158.945781909 -14.2351870765 -110.272494995
-308.881261168 -462.858723545 -145.798326453 64.6503396416
377.366825092 200.091794441 199.21398912 -43.1071020138
-428.099454367 -405.857708939 -128.352164096 43.038205282
-439.601821656 263.742032423 -62.8464663085 21.6461183308
261.847006582 65.6622447248 135.121254564 -84.2598103715
224.716621728 65.0946130642 102.324046379 -47.6805293017
424.316205197 111.546796263 14.7257645873 98.3886682748
569.242272707 -153.776889933 -443.20195784 181.053050993
-465.020690003 67.7963498556 -75.7899376638 -102.930233841
-352.331532592 -281.887417939 85.4649527475 -6.43181608285
-366.488502622 97.0473883 38.2307421614 -157.202361327
140.865860528 -62.6979971884 150.524118463 185.117461809
129.77675902 397.139020116 54.191945895 12.949520308
65.122540164 184.746423979 508.387279031 -94.9962602833
-368.125513955 -673.976536423 -92.251030528 -44.3094099804
29.1374145995 -58.6513575517 -80.1739608892 66.2658724127
126.133932515 45.1975540553 -105.201204814 -22.4929177003
-223.936045294 105.249818557 -54.8969812049 5.00167498371
407.231125662 -284.56775634 -111.706303654 91.7225139072
367.228270252 -326.757333164 -126.328570567 90.8264580597
-513.907765189 595.539317889 209.12499901 79.6758796343
29.8144414123 -79.8634953919 6.93839070983 -37.4514083679
195.971513194 229.917355608 70.0206621677 -119.036668668
-28.660418283 -133.767725976 -100.163368519 -33.5663643074
5.69811393639 212.138759111 -111.134336002 128.395385908
-322.165773014 4.8022384369 -98.097899882 64.9549723671
234.728652305 -78.8796977854 -146.740608175 -19.3162513323
-68.1190105106 44.8543724417 298.601146546 -112.667000591
66.2281553741 -178.17015817 -150.180955451 81.2399196045
-47.6453284197 -7.78619531971 120.983327367 -286.620788633
41.4464331911 -1.14665226222 -21.744550601 -13.4515668998
284.081200343 -454.76445775 24.0848861999 -4.16949367392
-132.497065576 705.879835703 -97.934099844 -0.0428603004043
138.034829477 210.107422975 230.171279736 -59.0435093004
186.259379699 24.8269554514 -286.496639278 -29.0447449594
-265.894643426 203.137162516 193.989273908 82.7586143134
-152.283129669 -426.625771234 404.005301969 165.636493909
11.646069626 -36.5493146296 -116.846084667 27.5057477983
-179.328168449 -138.983514021 -153.267500739 190.179759303
293.742742123 -446.791849052 -3.29105864673 -3.01176372219
-19.3655292727 367.679403267 -21.4963713894 -4.89681810171
-542.455065162 -577.620448282 25.1914180452 39.8159046603
278.143976046 583.063466238 -361.542399152 -72.9032808031
-58.2208695694 153.090991097 596.206911722 -113.130777639
369.21439732 90.5057751565 -206.451783741 97.6870529734
-165.473685246 -125.4215656 -397.269368347 -171.465881737
-470.073396804 -617.980372519 -249.930721872 -68.7344937965
199.176483627 213.229924564 312.43797712 -25.0230267857
115.118516447 249.120973156 91.0162603347 -131.324713534
158.598625064 -57.1119837412 62.3946245919 1.59680119022
-45.6408765229 257.981530436 91.7990365448 -23.2264370001
-290.250696927 66.3419119135 -226.899098002 -105.918982203
-82.4152628606 -344.023044922 -559.826352988 -28.505380503
330.088473325 -438.998392476 789.200066631 98.5203720236
293.481969942 1277.71347875 96.1964354122 283.284737091
62.1462567929 382.15051372 -80.1464535649 46.4537599234
-676.402422623 -673.846774583 -53.4572972234 27.4558547628
59.523818974 -130.479071824 13.7814880133 58.1216971125
-256.492094069 -170.506672807 -132.829532429 -66.4794439015
411.756210058 30.4370851505 -574.460527489 77.2447359287
97.6379602675 -199.030967759 825.026130965 -218.555826788
-253.792723738 -90.5692204713 -210.403966803 18.0207087796
379.20830952 -379.456498488 -359.791424355 47.8761097012
-432.055680837 340.081244723 -262.493853015 -21.5703886884
271.918979561 910.945333728 368.03488567 34.4999573876
199.055291808 -351.675728147 119.64814623 -137.623736412
365.636043248 -379.576849767 128.234661443 170.607351645
-300.516121493 268.831348017 -232.402264864 27.4380612282
-213.565183538 -177.311177854 316.06461179 -148.067955671
55.8327169378 171.286291025 81.0599949024 63.8241798229
185.964796958 -1095.73529208 -12.8396335705 55.4882544515
-169.68821527 141.829113385 -105.43460769 -5.49864119343
16.7941054135 189.419340363 -308.157681986 -25.7816372632
342.02270658 322.707908976 727.934310464 -57.4354280107
155.078804905 -353.106932716 163.907399804 211.398187464
-872.734734041 671.207454432 -592.28737183 -15.3371084551
109.371522976 357.754698055 478.355303398 -168.572081217
140.795628991 259.716227983 -110.453395102 -8.39519590925
47.7926956926 47.3234825757 -220.491042791 4.55701616358
395.545678948 -314.514241251 -614.504891085 -87.794633791
276.75154368 -280.592671786 -111.149269388 179.892910629
-1047.75675299 -607.845249292 -71.6780829726 -141.977070318
-256.988503187 -152.243940121 310.359665509 92.6859432447
460.562935378 -340.31005387 92.501731627 95.309331327
19.2649776037 484.272758773 -159.735782961 91.8051174967
-31.6531563145 382.762702537 289.160033429 -57.083475053
18.9229502982 210.565224038 12.1092694721 -77.2101885391
-56.609802657 179.422794593 -60.7783229027 5.98893592101
236.534237327 81.7880463777 314.765588438 22.8081607547
169.438048992 179.884096229 -47.7285039389 25.6722273986
52.2948652525 -375.124377494 70.5531824831 32.0406427016
-81.3970694268 -294.171520383 -255.830910354 -10.7682366304
298.769969495 370.444602999 326.547783481 -89.4041415101
-24.0577196018 -22.3515794787 -300.196906032 -31.6814288388
-283.792306805 498.315720846 193.447869625 -91.1727745619
96.7781002964 -31.4463604231 103.827288654 -44.9803592261
-317.507207712 -138.681415374 -486.33422838 64.8147549971
484.933682464 -481.773786829 339.71810485 -171.772585125
154.173696692 831.097626549 -52.3876669849 -57.4445323524
151.097884702 6.45035606479 -757.534601102 34.0613076075
-1000.61990805 -341.811780129 121.754702953 36.3200792799
172.828798565 -620.62325728 471.324355842 125.87898022
267.253750203 -68.7257702208 229.479561501 70.5662649641
247.090990509 149.3300764 194.42227158 -56.9235707034
-115.982068089 -954.362752206 -7.31520276862 73.5181866736
-366.93101124 283.362524674 161.720799184 -21.1658406876
286.036647748 306.076926778 -56.8578303842 87.1773558758
135.501422028 -101.370745024 -323.787934169 -9.65198923689
-528.309733244 149.281657217 54.9390968817 -3.56326715806
67.0826801458 147.495331779 -127.879463679 69.3887406
-55.2336247411 31.6819736864 -90.8412086261 -22.9248963264
-42.6979650778 95.8203716266 -3.25173013815 -7.08189940073
515.091643076 119.209807962 -268.46509962 -3.81934053298
-327.556675808 -271.720266243 67.6923117466 -224.344878844
63.2300984177 -1009.67531571 362.638763054 137.049378604
-127.389444049 536.427472717 -21.4569076614 20.7148925055
-69.2789789674 482.792462344 -221.808286738 -128.7191829
141.441186784 209.471687979 -197.456152643 53.571854789
-154.205117854 -89.7437640331 -16.5785871922 -31.0667323377
-364.458210005 -40.437351479 -118.498928575 -78.054594351
520.29364997 299.298724596 608.294290673 150.676695787
110.211489887 378.754745662 -214.69978578 -184.27613075
-172.064058777 -314.705597802 -112.485249272 161.363475578
423.359794151 -47.7352490382 112.296758499 189.555497063
-243.501931124 -500.140036002 219.438862777 53.2227606566
-136.138824352 -600.313751013 -33.7223526532 -101.684734897
-111.60520824 512.122799495 -114.909354882 40.3569241452
137.822214265 118.969280789 216.561646389 -66.7706605175
7.19887050096 -820.920753932 73.8217711576 -30.0348902476
-220.865665879 320.471413865 195.301323742 -292.519845971
292.651857749 763.653812521 -105.604007363 -27.3973355965
69.4119409179 -175.593010396 -168.766965448 226.47248116
-275.132752806 738.913597687 -70.3565065675 70.2482022524
191.76522624 -8.16796224415 -569.880562866 -110.566900258
-421.113576051 -90.0722891158 26.4536692221 71.0058810903
437.121867699 195.530728837 325.79515058 76.2632441681
46.5177450701 -22.0537161726 0.37186295247 77.4063393231
160.146567997 524.200312948 -117.132647798 -14.0995567905
-306.997617257 -1128.86686555 -361.978736182 -146.104395329
-336.692580478 200.140771777 555.931717397 -125.904786007
263.532852072 -192.599572026 86.4964800763 -86.1434426875
118.880850854 -202.262344859 -56.833649663 -51.2476194292
224.415742981 -344.789250796 145.426590096 68.6250843317
-92.6960244087 242.000907161 -24.1890366271 130.6491882
-331.943501496 140.734349095 -33.7785960709 81.5775633841
-1.6013051861 -43.4352434046 -119.159886279 87.3487206293
-21.3802427983 -154.843955115 197.520644508 32.004594054
260.464406626 -8.99910750667 -168.263334483 47.4452516075
119.251216612 -10.3515470783 -321.80540789 -70.4378339672
455.880003543 -255.47531271 133.703433854 80.8241301408
-697.395595269 1.95524011532 -43.332916585 30.032844451
-19.9769208528 926.388671696 580.513320646 -135.540647239
-156.492784661 -128.062988192 176.852263162 6.25607428997
583.814986689 418.54370462 193.608679761 61.7269774225
-185.798516645 -238.498697613 -105.194533594 -134.305854564
39.8290178543 -714.103411142 -470.949007294 27.365746367
-249.328521104 -81.2551159968 -422.507981552 -12.144689046
22.1861913995 1.33016186421 65.8051083455 123.544630911
537.466980433 -130.52686996 -923.677161775 49.2140936511
-199.645635129 -667.166189471 888.697386946 -318.341723433
-1006.50285012 175.993884895 263.619000763 119.534189649
134.964997326 399.50336095 93.271323139 98.3065783827
249.202006 319.057110586 56.9573623771 -118.311866021
202.736892802 471.495455602 85.6455936115 86.1228454896
330.864027172 0.535835737764 269.198693882 -128.373566649
137.587800344 238.712908821 -126.62240373 -44.338336805
-179.760199786 -172.716170732 -198.527324512 16.9510080382
324.739757628 -94.0447881839 -146.379447331 12.8659202344
-171.540381236 195.315799199 -782.570966318 54.6548238487
422.72688228 19.3672105328 629.603107555 21.6806317105
-458.482112317 -215.02779607 -32.3245832039 -30.3427029003
-4.51968673416 -10.589501404 87.4738784714 -48.2976339937
-159.270417072 -96.3660252588 5.2365470518 50.7186029853
45.5816963905 208.612097737 -278.458228306 88.0890705341
-81.1416480301 116.454812171 89.1365070725 -95.778389079
-29.6380056709 -740.53368487 60.1112043829 95.2624254097
-300.946707364 -78.4299608137 -56.2797521923 -51.2769056751
274.850005907 -53.9880970541 -852.410486077 31.365425578
137.849106302 -863.033626104 625.355378573 -107.23244291
-417.05984394 914.995103363 624.369692451 -8.21401758592
78.3765243205 19.0549152016 -232.905046284 -9.91788917305
-158.116824305 85.0775365367 422.839161299 114.241086892
122.277948922 61.468595822 -124.305614644 9.45939547262
-467.824809863 -278.904515287 -211.76631327 -51.1655595811
119.780639323 203.765752176 233.867089147 18.8805902263
711.74296126 167.925635008 33.8049984241 -11.9783888699
179.225112524 805.353630799 60.9815983468 -15.1470169468
-179.088458446 221.708521928 -157.922748512 -58.2145349258
499.891436048 79.7761847887 22.7497194031 21.4545685842
-1.55126368778 -226.597285381 129.520797699 -39.4086356958
-483.072463027 -386.847107043 -868.157105608 34.3214234176
260.496743694 -343.906694659 827.922682491 -137.632056787
-272.387073561 294.033306595 -233.311854958 252.358061073
143.690637532 160.612138719 -212.899069383 -84.9510779433
-492.291278336 -515.256819016 -66.0181700564 82.7578811544
103.182282672 -533.856906752 -602.344167248 -12.6089176594
-385.589159445 109.81281279 560.231135355 -47.6414552051
284.210506483 149.964679209 172.907258215 130.427139907
156.643546028 180.946806958 -162.348808678 -64.514203953
584.476336546 156.372914586 175.784314593 92.6924514264
-342.46799124 -31.3926674538 -70.4486697972 -35.4424137711
-173.121690547 209.188524876 165.423210421 -12.8557765176
-97.1400394538 13.7720797146 58.2823418054 11.5649174703
-80.4444046333 -392.800916316 14.9725524017 -92.9154821763
7.84707412266 55.1901611695 124.853108771 -101.669215104
319.127857871 -995.493752761 71.4201636685 -23.6808174457
-42.1088175154 1431.9603101 -503.094236975 48.8984309229
2.34195476419 365.756141371 379.707311696 -6.82328621001
-28.8982141377 -106.411196773 185.474064452 133.834399818
285.627024115 -424.746788945 -514.337452389 28.6073667824
-350.165109208 101.546187716 -109.023642531 -36.6441165601
137.889822287 122.908097895 -129.168996551 143.601111031
-240.230081915 -99.6639753836 476.517225674 -139.122317896
-135.216264085 -151.44425228 -27.949682187 71.2996887658
35.588446599 19.2598540383 339.38210289 -112.092075248
34.5747357749 36.1396754026 -42.9134171533 -153.859706555
-256.047985162 75.7308924424 -244.43345827 -55.7303346947
487.329299088 -138.901963251 -729.827245286 179.982564351
550.713158909 147.302935111 253.609094367 -158.38413208
-538.591724532 -946.653960431 268.228440499 248.049025685
166.477570281 917.669085638 383.701072016 -70.0408905578
-258.689339066 -177.763717849 -152.027944315 82.0392819606
125.871060304 -67.3199612714 133.640087419 50.9955767893
172.876188813 93.9435566859 59.8891517328 -29.065691141
-245.882070547 -58.6383737183 -126.763835943 -24.0549320672
-65.9916471085 -99.438744634 -90.219457308 119.934799897
176.453663549 665.351783364 3.31820808741 -94.0775448532
92.3423913699 -468.51230173 -21.5288602684 -14.1563367275
-710.229264504 -503.134992058 -305.223177098 -149.439338178
122.085510114 198.353608759 63.0271044716 -80.0511726969
-140.803681241 -462.522232486 -80.448984685 -68.9558665114
5.90549362964 243.100584542 -247.607092101 -43.5180034345
284.061753921 149.34917835 -199.210719728 -20.8255021517
4.15837069397 190.443674153 431.36075724 -19.7442743942
-90.7137709038 13.7333903843 244.872862756 75.6615509712
-22.7424179343 91.3271457956 -251.552157701 235.026725289
96.0862122303 -50.1558777979 26.8652333629 -24.41667666
263.111113096 410.935357089 282.622079055 38.6340227564
-253.68139692 -521.918975348 -23.78090445 100.892164934
392.057181833 180.57203708 69.397051913 -219.954026342
-133.628393196 -18.0534788509 -207.449609341 -42.4369765052
-241.24252776 -51.401346388 147.615275359 -64.5202054022
132.045195743 -89.2589379542 -1.12198105875 117.348959507
-298.163985602 327.094432432 -452.137760677 110.285254667
385.83036898 -87.137897324 431.807728925 27.5328873343
-87.7811682417 -179.153044601 128.333822701 -177.646614371
43.5906536696 93.5667508428 31.4571478385 -13.0054770301
-36.3227029628 37.9960112476 19.8820835688 1.23279911593
266.2410921 -165.29987476 11.7001646577 95.8924005552
215.86636305 -538.818544719 -681.413677562 34.478262549
-587.529574341 1485.2182068 -13.0981689531 -32.9714745768
129.437559547 -326.947341601 23.2357980037 -71.5930300297
46.0692560484 -122.312392829 207.259027762 -98.2985804994
9.61625193013 -181.460597693 92.5408986114 133.69803968
206.180609365 49.8868506565 -92.8934489467 38.9160688262
-149.254392142 -327.976362863 228.81737391 67.5501671887
132.494336819 358.534264216 230.027883179 90.443693117
-153.342730136 -421.366721048 -37.3908698744 57.6080060647
-280.83409361 -192.119187404 30.3318959636 -233.532256942
16.5970788865 -134.315271722 168.786952051 7.24993703895
242.710690881 158.689972685 12.8672995902 -65.1804328535
658.244854702 380.899701051 -341.396336709 123.309011606
-1349.08088811 -249.49897526 -539.42068256 145.747835719
-199.233339496 149.414467712 375.9691574 -91.0908923378
386.981110618 -775.935420095 295.894067124 -96.9295097391
-5.64465932857 977.012675203 69.5392954015 175.740620221
147.408620854 -229.388829399 -5.8417861872 -4.62923827029
395.344631117 135.464644698 -115.303525239 37.2212188069
505.80110524 268.157633076 -1129.90060405 -23.7908127292
-210.335720315 -262.664206281 1505.6966412 -123.733352989
102.658497873 69.0231825044 27.5858367171 120.684299129
-182.004267157 -175.379431095 -250.803803866 -95.8266131079
-139.051544579 -29.7662464881 -43.8898227369 -101.759200332
-190.266669388 -620.042343203 -185.762497458 -118.171118099
-73.9517067102 442.723635601 155.804684159 66.7538918684
177.562138754 -427.892910907 -321.650640132 108.12328688
-196.745535764 215.07839853 -27.3014803842 -10.9662741204
-9.01399558541 363.858294091 -21.1262349432 -92.8666394967
239.950957696 130.743250384 -321.702741333 10.0328883132
-158.595856338 130.488933207 -259.231608017 10.319945952
-26.0408461387 106.872063765 619.640476605 -81.5228062026
-293.512722803 -25.9484473952 -74.5748763005 76.5113905006
-91.2197444553 -218.549833561 332.811076233 -50.9924521422
1.13695374007 -271.868792196 23.7777759605 -40.5321766036
242.651196384 -549.11889116 39.4989541633 79.7374311213
-65.9611173174 1284.45543171 -549.471684836 20.5047818926
793.845862442 -202.650322566 432.152026052 -140.436771804
-304.135287782 -121.491841456 2.80168032683 -32.8255507337
-102.35682555 -39.0460575806 -15.9226775954 166.460267131
265.145907502 186.491739211 -253.654862966 -130.03257644
-50.7451908873 -150.786895908 95.6358299056 -53.2888920122
-286.198191113 -358.870681091 176.155800403 318.444492345
63.8188220659 68.4409502796 -9.25441553142 -44.8012013208
-111.972519555 12.9694998752 -2.32806067286 112.250004069
58.9020404912 175.469500521 55.8757431218 103.901440362
72.4500152699 -76.2184406597 -114.202203266 -54.195758318
386.643867987 172.749394591 -129.59151168 -88.1936022534
-140.532268673 -143.223341285 152.046433635 -23.6152508594
55.6148890975 -117.740862169 48.2596094053 -85.9355778438
-256.055086423 -21.0045191611 -155.539711106 5.08748287771
-228.269985505 -422.230678403 307.00330978 -130.331249652
-165.607340379 301.196166551 -232.591770122 -87.1909399793
-50.4465138033 98.5970291208 -81.3893610796 21.3341885668
-35.99378984 -323.535129487 -245.045215321 -8.96020090572
594.895504088 800.676152244 -334.307056222 115.379220845
-667.27933723 -35.5425797795 326.599789726 -131.905710475
55.8036522884 -108.528827194 109.42134123 14.7074792238
-103.310927368 121.169830638 -262.920912892 159.708479316
706.634045265 315.013865457 727.582217077 -21.8417924396
-557.996849638 -427.949018773 -479.526828334 66.3552491376
-111.650314828 -904.793758273 -339.450276794 91.8692327727
-128.754493966 147.047107766 539.94214373 -37.1321304437
-83.7806687959 -11.3609434048 159.40347442 128.853090394
65.1711472414 465.61844429 -35.556967599 60.3406760844
251.715922492 88.2936391148 -20.3397708538 -42.6378351425
191.515286606 94.4672419049 91.4012651836 -141.700269249
53.6954971924 -74.5994001373 -33.1671955981 -29.3090958098
141.292165141 157.507610065 -38.0458832775 -86.8035348987
74.4198556857 104.536630109 -17.9139443899 -39.1685331221
343.8951859 208.624931512 165.137055748 109.767879585
-158.930307019 -1203.66910954 -198.033906932 213.056275336
-248.309849664 1539.2077561 8.86213885026 -80.5282366308
-252.875934998 -630.006667409 -35.3972056789 -3.64053569103
18.0237261757 52.037936452 119.218727943 -91.9780516033
113.878954971 -11.087319795 -129.433044662 -65.989952501
389.516802591 157.419101459 10.8783088373 -54.6740370953
-275.728992869 -390.253337985 -38.5526830577 4.05338960209
-163.766299833 -198.063071198 -256.842031295 166.101421394
178.80450264 94.6785795989 -111.23177401 -44.7917822573
-19.5706738107 -88.9317489267 464.955834655 -111.058568842
-565.141466092 -77.3313416681 -172.668577064 -46.7617852909
437.620015879 218.325401872 16.8514785005 91.9790762045
-162.63183295 -102.48069585 41.4830894482 9.43056192883
-213.011519469 -425.211037762 26.0164140867 53.8180822391
-78.7594795737 299.502858095 -10.4958438186 -88.9500099908
386.46862049 81.986891342 103.82283419 -33.9401302949
110.187171529 78.5946947077 -10.6952458171 -91.7830064024
470.616719865 469.130129697 48.7580506297 150.808050352
392.418907922 -427.485097053 -87.9767449571 22.5663913156
-517.309407436 588.558441883 538.364707761 -104.40563517
-21.3772089606 -617.61616005 -332.722566539 43.2080687053
26.30994341 403.389481535 -278.454475208 186.747297298
-416.940442051 165.675626479 -145.167883391 20.1942038517
-596.448740501 -729.353635884 56.6281590533 29.865968393
132.193689991 384.91718828 17.6554222625 -169.594695204
-157.660641285 -293.681627189 -52.4262279762 138.529499999
338.86841188 49.7025272275 201.171321691 -89.6658618459
195.336378365 76.9938179863 -170.237864905 83.4564552489
-91.8505286191 -67.1485541271 -24.3042023742 19.4688894217
108.281628848 204.083682536 -412.393898737 -14.1115535819
303.363856779 338.211887817 483.658765316 -123.982917935
-42.3569723675 -65.7610912812 169.395156622 -107.561824138
33.8284050344 -66.7429193339 167.63134834 89.4720471665
27.7216111064 -295.345751727 -821.524584431 -29.2091501714
-629.150291104 -749.845285766 -22.5804640842 -251.265347053
272.623745367 400.110108885 240.678516759 205.041525005
14.4983066414 202.383382187 190.602904803 54.4315917417
23.2771619434 34.6374097655 287.685741981 16.245143044
-97.8887118835 216.829741293 54.6373123207 56.9752168946
129.850791938 -403.278300604 191.120425492 -85.1522408266
51.0349672775 149.265844188 -19.6982394652 -69.1476263427
171.400699972 73.8595362181 -98.5704316658 -61.3696701109
175.627196983 -121.338859139 -287.891829531 150.444908615
420.390492473 524.771986848 -144.364533853 112.927225951
-469.602173402 -26.3482198223 -19.3723319198 -129.322867324
92.7662484639 14.3611908014 127.932416255 -145.893809748
-117.305553445 84.1304466443 201.425515071 -13.8973245087
-160.134647056 -282.847827146 134.352503866 175.398926903
-189.407125704 -110.448342943 -133.784778087 -41.2704467224
241.41303636 134.397804252 -7.85057331568 62.2226827152
-358.711466307 151.366514406 -604.474541091 21.403351319
-39.7337812027 -205.36734936 549.038183283 56.5520504475
-25.9369453039 -238.937243842 -110.677485479 -70.2825032762
416.151800579 193.869917867 -139.988584126 -5.51904543406
-737.186462088 -197.308367918 -689.777105727 6.36545420564
-132.931144839 -16.9921466732 509.66640314 56.948927929
1219.40422641 -934.43093714 343.919386778 146.365487442
-1055.5657677 284.555979467 -13.018325263 -234.293895927
-443.226437849 236.235552867 21.5910284399 -146.313241559
489.695130306 95.360652606 225.746370535 82.4130591995
273.673449735 151.257429909 16.8648915952 -83.0948888813
229.649431913 74.6991424608 23.9198057951 137.969230574
231.484994978 166.45909577 4.12540384118 -70.0350165158
319.251443888 -42.8962002646 -501.698573506 21.6500668935
235.643431383 410.908170681 261.63066819 1.35430557687
92.5687984651 391.374459886 -67.684153498 36.5376051906
-534.864580252 -651.283855128 -85.8266197491 -84.4187049375
-20.9687039449 213.466029951 124.313637649 -92.2516938781
-50.4480988548 -58.414606369 -29.1346087096 21.6796658007
147.226965109 129.135817986 -238.309190159 72.2946739484
40.0626914493 280.703389298 174.88532045 43.8522128226
-478.416621946 -34.2086940712 37.2727749462 -48.8795652274
13.0609290895 37.1113979329 64.4643163273 31.5458909603
8.31346016318 -437.921392042 214.488697437 172.73841633
236.612222798 -89.5092508465 -15.0778294372 36.0972044534
290.32343283 -118.215107959 -638.337461595 147.263198901
-176.052216734 391.410086722 47.2096541026 -215.60541836
-664.28448648 -664.539758021 349.501702652 0.623819607857
-166.651319272 4.4279958793 139.730994448 123.251915117
33.9164186062 227.029467752 31.8735118048 27.7972318861
52.680088696 69.4146248598 22.2302866944 -103.25630985
16.53138971 -376.308776212 -173.166157924 -156.042226733
18.3576081782 237.238148412 -510.451098006 49.2267565881
648.54257726 -63.4207262355 810.431847891 -161.357843608
154.672464672 154.251501867 239.830039101 -39.6831149369
-166.826797084 66.2652672217 -169.486352239 5.66584973519
-35.013454416 32.7365999547 -102.856541582 52.0197977368
-110.01782502 -101.277052416 26.2373342708 -47.5086718895
71.2167631081 150.935758359 9.5753047312 107.769419444
347.511233178 -63.2087286313 -103.082457504 106.922865679
-500.387773018 -203.309650428 68.7110055676 -146.247811235
-121.871486769 223.983982949 -236.39665602 67.2754087065
97.6677966412 155.529173435 -70.1691269866 98.4006377382
-323.817057172 -71.8674932016 -162.710992023 22.9339244447
419.950716633 28.444837592 97.3372939731 -15.6644109898
332.303273037 265.541699657 -116.477011111 -80.168752339
-614.090457654 -511.12041438 -315.675698711 66.2550738353
-430.988009278 -91.7030437221 289.693423251 127.534194569
233.924004879 363.919693193 42.0691044546 -90.5975036967
42.4905225066 160.616167354 -230.054318589 -50.515463478
-14.0978834155 -471.049009944 465.710026788 -106.959061868
-288.55254103 -223.422651472 29.078596037 252.808275867
94.3125373634 -21.0615765507 35.0293326814 -15.0547321424
239.106977669 164.937142386 -80.704682766 80.8545880131
358.823470483 359.459917337 485.667971632 -58.6693999039
204.317385594 -53.598169517 27.4074843687 -68.5186287184
458.222642961 -192.343299684 -196.368869499 55.8040937298
-314.394988718 181.428506114 -213.7197911 -129.998406719
-47.1661615638 -97.5191701711 98.2593335416 73.326216453
-886.308377275 94.8963064621 -272.164447306 3.42258388322
366.062133521 -33.94167343 -65.1193974461 -144.106462974
435.903545538 189.835369091 25.6680920823 -52.1447797315
206.389413463 406.697677174 80.388256961 -50.9155418932
158.000890004 -395.069694658 -150.379792242 -5.88018924529
-378.640943426 31.6731266794 329.496303865 -72.0781669451
260.530647338 18.8320800582 53.2233728203 163.426208647
-304.21142569 -354.576386364 10.2081190448 -95.5059593238
-174.59413686 -270.603427337 -53.4147254238 132.404907613
-118.190053495 -669.172292706 -571.571565664 -67.4261886336
64.3098772638 837.606182183 389.087830966 -128.790297521
-201.075654043 187.929363089 76.297078777 95.6896614837
29.5093861895 -19.5677436808 38.5388229546 -90.1497973709
276.491161984 149.974133497 -112.737150103 115.458047634
-177.158821579 -192.7950746 675.642134612 -2.08402016022
55.0072167072 -464.32687982 -74.4304558619 80.2483384059
254.769121907 875.942153652 -123.622730968 -28.5363546664
18.4212253785 -344.658504299 -119.72283627 -175.000949172
-275.918612168 28.3790939563 -158.432539592 -59.8134182693
-76.7980238928 25.1477716374 -54.9348004297 43.9923192266
-242.250212126 94.1769010491 -257.105931578 234.636131988
-351.256061328 -191.52572617 -111.78013787 153.313500979
812.942001927 -247.091201365 -138.403980218 -15.5582829388
617.267370058 214.093592804 218.588144053 70.3613923269
75.884751593 289.152148523 -89.613732508 73.5577585247
-487.079876745 -148.14529096 186.944303889 -160.386820741
-212.164200587 -4.26395014209 3.23748199441 26.8088795722
32.8000730734 220.31097498 102.016699601 -79.1960359948
492.580746914 405.578756018 38.9155897107 -108.063160337
-538.891296645 -153.386350806 -440.263392896 -7.66066244267
-758.694590231 -439.303474958 -766.200102953 -115.598438911
473.336429827 319.235821918 1080.65566159 -10.3003749533
-237.871272233 -333.391877984 186.345679123 39.247434328
-210.066487731 -606.667187002 -267.7279827 79.8605856124
219.665506477 -354.791999288 405.964992423 -0.717369813285
97.5779884532 786.900387068 -19.3316337315 98.9141800411
111.471202671 -32.2840845712 127.03339733 17.3576799962
18.239556757 38.5887203302 -176.743702988 -59.6137585994
308.569983195 87.3322304305 319.587801426 55.8347799017
-178.485657739 -332.305570668 -258.113513778 -7.16318027505
311.570473291 132.217331774 -213.996330144 20.9173355274
254.287455767 91.8561720679 -199.903229071 -27.8398053575
-304.466267388 -220.004857464 45.0447812797 -155.240939752
-290.340799863 518.644254533 -306.566819829 53.1030927
44.1080201093 -184.325354418 -117.479627896 111.343874612
191.774559042 193.863837786 576.11891167 -45.7975228244
186.118023095 236.90970695 -82.1268107497 -114.392561727
-269.41453713 -216.241755708 33.3440044862 -152.070677386
-241.22956481 63.6927808426 -140.264259953 54.3252793568
130.942278637 153.060169127 8.84006164499 192.726581612
-125.812501713 -461.445628002 67.7659034947 161.736265087
80.6927067137 -274.769959401 -98.5156234088 -66.0709187418
62.6733634487 -152.492558196 205.059530036 -120.072112731
-271.854369597 -189.587329369 145.691627331 286.508969192
-126.392703757 161.726195059 -464.488960143 -146.956662576
-106.1691398 90.396238588 83.5258648434 109.200035644
385.607378744 282.246855934 80.0592405398 -184.819627112
319.903289741 147.279440326 65.692447123 87.5519348387
76.7646413273 -231.760431704 59.76435931 0.537228994367
15.3901341091 423.129542698 -149.070705466 -50.0076879205
212.04397705 -172.135751749 381.686924845 -240.449106869
-202.674435182 -71.3190604822 -72.492281786 22.4675514641
-312.906790541 228.046106653 -112.82178341 -11.8967499208
621.068226637 293.141173195 -542.287870048 47.210678421
-165.417997253 -714.523673427 222.790541344 92.4542317521
-457.316573848 212.006793199 97.6398342347 -7.00013921299
-328.006663692 -912.834898485 -55.5020924156 -3.8202286396
-286.12542763 224.107832428 52.893822773 54.0021830646
3.90870099596 149.346018843 125.255261109 10.8467328435
312.69184139 278.874156649 36.800129988 -114.044358384
187.992840829 -48.6710234525 562.864751051 41.2041144444
-205.343550235 175.472993293 -88.211128252 -38.7223801932
392.535923513 400.290342523 12.8950306346 -55.15642943
43.9987520107 138.945486275 -160.868235828 -47.2039541769
-205.76560299 -195.75125484 -519.29854215 6.9341057039
243.48295808 -31.8893115504 391.469961054 68.110154597
-4.78847893622 -22.31726162 -73.42615512 -50.3797540682
-64.4300730058 0.267024686744 -43.199962803 88.7917372082
155.143546218 -227.810675205 -190.136110703 14.2090985139
-554.688969752 51.3778261138 -29.053661135 207.148397234
150.333181183 244.71090629 -73.5960246493 -86.5438414108
-9.55813218801 32.9249247853 108.931725523 0.0857378480997
347.749765897 111.542337674 -197.791602395 -54.2575682805
261.295773059 -90.870048043 371.37374678 -170.617124398
-359.62757914 -271.629148171 51.2788017896 95.0009619393
261.470321703 159.116210839 -413.902279265 23.5716473466
-492.793158485 -821.262543787 18.3119273767 88.7883687576
-4.92944342917 304.608298802 259.989551981 -68.8591552564
-80.7337344189 -613.680949715 266.088478942 -10.1899291864
125.366902395 408.460128195 -195.430541347 115.953454704
493.986069455 581.389733316 341.428181941 -172.330561062
64.7569314861 27.489788334 -32.4558977275 138.698174607
-817.855025649 -384.707701887 -181.229305038 -2.37724725053
73.6113455919 133.085049491 -8.22034446781 -101.583146488
43.6514626343 55.4856770045 -1.34128026217 -5.92276078156
170.247445152 -286.058180061 -14.3984179938 -17.2398060331
78.4507230103 650.407186056 -45.7626204856 21.8586038599
230.803103788 201.129274493 -388.572888479 -52.2512540165
177.06850465 -11.4954608781 722.045090375 56.293502671
93.213563622 -37.3084964847 -41.0866488089 112.593066926
-207.736875172 -335.75458546 -263.465351964 23.9387026121
517.152585845 572.84625009 -487.189961676 56.0219062513
-446.36844299 -249.347299854 373.75161377 -212.923701653
-147.439464463 67.8586426894 107.900581897 -156.076593478
108.854736808 -360.313891769 40.720028206 -45.3384812473
-567.052366936 -169.150904693 -85.9070981679 55.259830216
-43.423389297 -75.7770687778 -102.310746391 58.8257315279
90.0999890856 -76.9714480284 360.499461378 54.9506889577
7.14237135722 -71.4904506419 -314.395383132 -16.223930787
-47.7929356465 94.6311862403 226.500182246 26.8160409444
-59.6105850283 132.201497045 42.8203898422 222.627962405
43.688138948 -162.058938696 -75.627492092 97.9954633312
47.1684633561 -737.677593626 -206.072913292 -23.8462647313
598.52585448 1536.83823987 248.179621088 -23.1280044312
14.133929806 5.94090405939 -228.522263175 -16.0512830785
21.2169142134 -61.14434629 -188.644672225 -58.8227442432
-97.9182743241 -380.76710617 -306.89489905 48.3575937396
-41.3932268414 194.59201669 258.815261761 -21.8345480777
77.6881360791 12.879283931 214.285414304 13.3050561159
201.050130063 -48.8321667529 119.800663901 50.5580251096
-263.499604852 121.000034302 -21.9492882779 -177.294501897
37.1949375755 -66.989380084 -132.481547547 -9.35902281044
112.079375001 -27.109341036 174.970558664 -113.629863017
-621.379256717 -947.062573901 -270.976109656 -14.4868864249
-161.998320687 82.4827376709 77.534133564 16.3789998451
98.4367229315 332.8734439 -94.9482015086 -17.1703903423
43.7702567258 25.265904065 194.468712453 130.293322666
90.812592285 -147.741673462 146.964842181 -66.7117806024
235.711269513 611.585431398 -67.8457375837 103.799689387
-115.412673466 37.4944718138 -196.632072225 -47.6866515283
-252.967793755 -232.573984114 -107.989836726 9.81281991643
261.124126099 -23.7107886821 -15.0332046022 -4.44433200338
4.03013001202 245.439496741 -32.5917761171 20.4777169676
40.810794591 -720.847222707 -132.699597871 -36.1598414873
86.1784148371 858.085660149 416.767950434 1.80273023073
-76.4783178269 -122.318841089 -39.3579317283 -220.903818911
-46.5401192068 -112.33043612 -113.498889275 -49.3751495354
-2.50110599281 -287.220897937 -75.9325862046 130.045292065
34.4828920734 -169.712877881 47.0478462193 -40.8168824783
-134.587986193 -104.187330813 -31.5817384824 44.6049123238
758.760530291 67.190764517 -80.5996147824 39.236001332
-665.686265342 250.063540369 96.584804638 -28.3405100211
40.88590237 -222.441856319 -369.801024307 -47.3452858023
376.855093995 187.031303181 686.206866046 166.04050265
-173.808988599 -262.763491393 -316.325186419 17.2871240231
-157.615201285 27.3153105699 -213.334944996 15.3359007003
-112.333180617 103.229107906 260.898156861 -82.8595733089
-112.590918325 18.1866583819 302.441413246 10.8641679456
11.0295678332 148.098309362 136.362053948 231.005194699
159.516462202 -191.006560036 -39.2660388679 -112.842856857
-326.83497758 -170.673079211 -200.343502809 23.2647727312
223.248608138 506.563273683 41.3007540566 -6.41995831584
156.582833037 173.003204342 -194.917965444 85.6788214254
-489.88494934 -590.928013002 -301.576857825 -25.3461840405
-126.641152887 63.2537652087 274.900012436 -34.7235757875
99.6294440249 236.955111868 51.4792157764 130.404048508
165.003522067 244.586686138 30.4375726131 -37.8583023417
56.22648724 50.9141824639 3.67367375696 -145.590904967
37.2144664454 24.5777358826 -62.2922837987 -96.6072296761
109.476040204 -3.26408645399 5.43352367155 -63.3180576202
306.97048825 -153.239955804 -122.615513218 37.5453584443
800.594485097 943.380105654 -170.252288167 96.9643228478
-121.688219151 -963.291147151 340.040686837 -100.553591732
-645.638796939 -180.678463557 -97.6882096396 -0.605498185556
-309.615003593 -99.5355200171 -264.532558043 -71.5671899408
-141.782758944 -94.5068428198 -307.053919604 38.1389243831
-0.865022039709 117.082382955 390.721380219 -22.1687547329
53.4262009905 -497.074653706 -234.612507817 9.93566591494
-227.813358572 -660.823515638 554.778127307 34.9463977366
-203.528989933 597.003267377 28.9061141134 61.8509756633
454.084059478 545.048495783 25.372477861 -46.4493135441
-12.4485214547 236.836756106 45.9873010253 53.5104114622
437.647106121 404.608471249 -37.5589189427 -44.1415674036
-90.1900767233 -12.7534628793 -389.311072905 -137.032559504
-75.167436953 -83.1238866244 499.172659474 130.037999795
-120.635296216 138.056353481 13.1061822943 55.1059629002
-290.358230286 -753.943766769 -209.375800059 -53.7648554739
-71.0442749425 344.679573138 -631.966646265 84.9215244888
422.544639028 317.771853685 159.624453939 -87.6087735442
373.697945353 -483.560679072 625.381392712 90.0001354382
-293.199110295 945.941544457 80.7728077997 -200.435965407
-16.3320589726 -341.596246612 77.5929849639 160.330365299
208.827471488 -766.934197244 -54.8263363857 63.5049925246
-146.681908758 543.154056934 -343.316370441 69.2137128206
-348.745474217 117.896755023 -2.45800697898 117.991126398
-43.3387267303 -448.043082403 -230.095547379 -21.9220410006
-14.9990222694 73.0198190707 -367.18585236 -64.1311094331
-168.125919699 -397.181270227 391.87104326 56.8364502457
250.168519377 135.472225159 96.7202277605 -51.5270388534
53.9073677712 -450.568117495 82.8772110621 -81.9293761202
-12.1135547663 -125.318566797 1.77489452088 -91.2817061604
529.400728427 616.426546244 195.392169752 -113.300351604
-343.710503202 61.5477145688 97.2338010171 108.892107026
43.4532657005 10.1497531003 24.8082836217 -4.45430727557
-145.241635146 1.64549947595 158.210686013 -93.6801842857
-2.82641856363 35.4861313184 -470.590561218 -14.0929850663
183.829503702 20.4226708478 -19.9635456188 -57.1932543381
-507.255939208 211.106219468 101.698119903 133.529129635
184.296035323 -438.78725129 -249.17608003 95.2530537891
-31.1498343792 62.4821256764 -122.754970026 -66.2658665461
23.9341161805 183.433237229 551.167471941 9.95377380791
1.1763546553 -13.9406287753 31.3997464904 10.9628171307
-81.6151939373 -410.932408854 -3.26373886755 -109.690403814
391.925643768 -38.7466215124 -61.8779175883 14.3056118181
187.34493845 440.988860089 -87.0770010973 -9.70812319982
-5.46788547143 289.857874668 -20.0997546483 89.0105325667
-72.4020741607 135.346594092 -238.187722069 54.8203282922
185.007169057 80.3337233277 -258.48157108 42.942225016
-35.7250354394 -490.125511513 23.6618114789 -77.0098835841
-466.050261837 3.20607127128 127.676651532 -78.6751248809
100.912831624 149.512085956 403.418186571 55.5731350668
-120.681708871 137.970883258 81.0843938842 1.14860943529
233.445473189 110.569760449 -147.599695978 80.5217285163
519.844661976 451.078112737 183.443459875 -117.844456971
-165.467312053 229.234252294 -362.90953759 -102.278806227
-528.028213258 -1366.31305662 -43.3199030656 69.2984922033
-261.57870091 110.443983717 195.089741994 -50.9855306977
-64.4444844979 -88.0550339063 26.6267830895 297.190577745
603.596238533 26.4372955066 -341.145257881 6.26625717484
-404.331971232 706.59124685 270.46385068 34.8354383083
-8.84321741518 -218.243263307 -387.105354361 199.041650919
-101.597350181 -85.1637118382 533.239016796 -189.571016542
-112.812831446 -254.657215587 105.959827907 -65.0947746632
99.0857501607 172.509335417 102.469756977 -170.983600808
310.385867095 146.033890544 -183.057284759 -35.8306493747
-276.594228435 -847.288580708 244.423059095 -40.6033307663
-92.5124061641 86.1523573162 -82.0508850656 -102.364516937
38.3004027027 -77.4899642922 -33.0057263389 83.1655791804
230.030687894 -33.1339341927 -226.74601717 112.782561912
-168.910340001 -300.847127125 -262.281300907 109.562979215
19.3852812732 459.815232756 -260.427425157 96.1523761193
193.529898245 488.440723526 214.248974825 -105.240205814
27.5165992462 203.009642009 351.93776232 54.0033488455
425.758755865 394.404269913 78.4882254321 -136.576004265
-65.769691997 -224.847510474 -161.2984052 -117.874801887
-101.927139484 -263.378530553 -71.220715332 10.8945139713
-135.792570668 -197.675927438 75.4239824506 -42.6134555762
-10.4420537362 45.1474164175 -44.4566360905 -74.3053726154
-151.038094785 -57.2088993486 -92.0864756991 87.9414512677
23.7120545535 106.032664051 -16.7110664623 22.6855086161
220.320313908 476.76110188 -46.6461463697 50.0998116522
-58.0653001876 -108.644401236 172.42457947 55.0410473749
-30.8858320732 -701.099213705 -574.651046211 40.7939328191
-76.7141736221 -476.463096754 588.289090373 -57.4876808489
66.7847892528 243.772134855 120.52308402 -61.1217665043
67.1103485653 575.768135768 -401.401078688 24.0393404987
-443.984428631 -160.188481954 346.369125256 159.576229356
101.690021118 -329.497835152 3.27684542103 -27.224956213
-411.756833479 196.363923291 -252.428071081 37.040008149
-360.913084334 -80.1019754832 -309.379794761 85.2560988217
463.568786328 799.612831827 825.702337385 -62.7786999074
425.773218597 231.782992099 108.017275672 -79.6740782212
416.017312726 -377.011305519 -368.312296381 -39.9378875611
-345.388040328 235.489479541 282.917182671 30.2192698738
-276.306758124 -541.395865293 -206.57207472 -93.9968382065
182.504997921 590.44394874 -127.850936401 -4.582542194
-309.611737313 -124.493681372 -220.953374268 58.0112088186
-2.79091122571 -258.948821906 -34.7905143945 -49.7713634152
-157.877942355 -475.189740199 -46.5479568438 71.9064207224
425.642388048 234.946722778 -182.580146683 -31.9076343521
-11.9068314371 -37.6256328262 -322.743089013 120.336022468
189.618473697 -163.909517628 132.271854871 15.4825027724
47.409957856 -19.4215134596 321.230019706 -14.5909538305
342.03983138 262.097953847 442.385707741 -42.7183480695
126.255573674 -60.6549743774 -122.062352615 -221.077696362
32.5452263611 302.30745532 183.512457748 40.8369898004
-18.5207989835 -62.4659826804 46.2370392504 173.416034641
-655.155722539 -345.126650708 -224.15704137 -193.121222234
-137.557034763 -162.335843876 109.263986396 3.83341860212
7.61399076168 -311.101671132 95.4553514691 90.9988420671
-104.97060381 545.895341307 -126.2327699 -9.1701421929
571.357015923 165.139383534 -369.833477968 64.4072656764
131.537861214 99.0773987469 334.238644409 74.4024329079
-70.5259155847 201.413416041 -182.027795371 -120.371988866
-225.4541117 -503.224797553 120.735337325 -53.1195355149
-316.511910905 -336.862324318 16.3193396437 -91.4823628905
-59.089683329 387.878938051 76.7815128342 4.17821048742
184.799783338 -9.36581201037 -31.3748521761 2.10917581871
255.779950033 285.436746415 29.6615821237 -58.7369013014
-306.784213519 -428.545961162 -75.5843417844 23.8539746703
381.018908234 -101.154657268 32.7858528592 -44.5348231198
-315.291515183 581.452424868 102.539953332 162.888553726
367.197231836 -999.265955363 -209.377664506 51.8933316421
-555.221605726 1639.65207487 -78.5980495067 -75.5640403656
-119.53350834 -295.054536904 201.051171172 71.3507542342
-69.6338235631 -290.557745054 -13.9573344599 -99.3477064344
-21.3453368779 -59.2685434803 28.9929567789 27.972488837
502.42964912 -17.7007163075 116.249951221 264.240098784
31.6181901632 -268.348681986 -107.95622489 -136.981176947
496.092335947 317.193189348 174.684080825 29.1610956115
-150.699352578 -286.437209006 -451.391983018 39.3356247993
-218.504227515 419.82911501 123.142898205 -26.0464797413
-33.7242287225 -311.030982487 -50.3142714696 67.1712684769
-133.852994895 -353.35807579 244.828186196 -119.182013797
-97.0264404608 61.5105610343 9.08884121103 -123.204761581
-152.307361936 19.7091308185 -0.204722002076 -24.5622411342
134.194894245 40.781272104 134.445353391 -36.5715354817
-50.9718744268 247.80831766 -373.953984327 80.5232705354
-175.047603305 -573.958457472 343.887080287 24.6287573999
-120.093300329 -65.6465758623 -84.7194368715 205.260611956
331.234553032 418.554507263 -243.717773591 42.874743107
457.587295989 -185.815757395 619.749540307 -147.770449768
-422.671328588 35.7546228944 -100.839432765 -2.05453912025
-94.4723412955 -94.1199659751 -18.4185117427 163.679863038
46.5097198179 -174.843159946 -355.659066017 -36.4687076551
90.7520494944 405.362853557 61.0905676965 -147.207382586
-85.3534909807 202.036017606 -198.722525897 183.347613378
35.847896612 33.0706774382 113.958736442 -15.7407979593
827.477621037 -295.676353409 -132.734410791 -176.051041504
-646.060775266 385.998014206 101.493042958 -23.6357382675
-366.116635635 276.236394893 -353.737521507 154.19949505
-10.1292358649 -39.0088837841 -124.467773665 -215.193817621
20.9193509647 -139.749200919 396.578091542 -47.5692372961
-36.232992444 59.9384341941 59.3850647542 -20.3240618647
85.5071149393 -7.47624200575 -87.9181387605 171.396298712
359.242949656 -849.398107694 -270.321071653 16.4916278374
-169.60867573 575.50730256 221.302868115 18.4493342619
11.5093667593 -136.159133146 120.076844966 38.0872106356
302.87850556 176.994420476 308.132019758 -53.5812247486
-217.436391808 -370.860707993 -402.247000991 42.3720673528
-179.224280769 -813.770017862 378.562596465 -27.4063899537
-276.604950504 715.947747088 -39.7761729018 85.3144499445
241.732198196 409.448097593 -1.48275533399 -124.018941931
-61.1961187086 -179.099655883 94.9808679263 -100.604273244
43.7140488305 69.2307088169 -200.113321722 112.529079386
-129.981005868 -352.17664929 68.7811919658 69.364504908
408.399971638 158.460905205 95.4276204143 5.85228819272
-162.115195108 -160.340380712 -718.076794525 -97.1974330495
-92.3789173296 580.505123406 -337.760304547 -110.615928089
302.285442801 154.327304556 371.850852597 15.2051253671
-464.97304825 -940.514741354 806.760978765 -144.27250126
561.089203326 800.873311058 31.6902100639 228.393861301
-266.343471381 145.378319278 -18.4519062425 -107.220465865
106.919200619 -48.3220826612 -437.02281558 -89.0430916236
157.472270101 -49.2873386612 473.561750994 137.950689528
-38.4628424344 -136.887691023 253.207708062 -45.7795748091
-59.777270878 51.5806185518 -23.040148918 -12.9613656111
22.3842745732 -109.929232526 -149.003445047 13.6838319137
203.850255949 347.996230939 -165.174204442 100.713884275
-164.428959737 356.879907169 -486.945923601 45.6641839943
217.195371223 -621.329543888 -382.601302635 -10.6723636814
-150.387492698 -119.27957713 493.289222636 -169.256704273
-460.300316903 125.899482345 -56.815136248 167.427408783
-192.137191789 -495.071697744 -110.231968931 279.244633963
233.49718494 27.3434450088 64.9196659732 -144.193320751
-68.4525297329 218.726159389 155.262076856 -160.992701741
-145.469848875 -4.26993488227 -154.790975311 -67.3947077136
-46.8683202444 235.10471517 92.4760657605 126.914487763
78.7054372689 -269.091995972 266.809960817 -83.3688167453
7.86397579831 -111.052973124 -135.327141025 -45.2358702873
205.57403485 -195.957001384 -82.9973265352 23.1388606772
230.129714236 321.627652729 9.11984562283 40.8196577549
-42.6116621235 177.809159061 40.9862936119 -57.135006369
-165.367348214 162.540711835 -151.654303755 110.028886189
58.3306081334 -606.50511161 -169.985230538 -93.7597924612
-865.825172533 56.3206350606 -306.103926536 -44.9333098232
634.539259335 131.206656686 350.269671562 0.75979360394
92.9243484484 170.027807118 -437.997042745 58.6005758635
72.1887197946 -56.5338511006 541.344882594 -28.8032018644
176.483701194 -2.74888799939 154.907992519 123.082529555
767.080140885 413.746901343 208.787772421 -21.4874205185
-419.563365005 -126.884310456 -115.925410741 -135.471768197
-179.70150722 -530.094879609 -351.844941409 110.296235173
-534.639207981 98.3636800109 330.052157614 -79.0376580238
335.459362267 187.213497968 365.385019847 104.64286957
-18.1406010622 -224.062702789 -176.430639264 -23.8837040553
-20.6903367626 381.007664766 -184.620747114 -149.816900687
-89.8735990835 -49.9944769905 -157.921221739 12.5551696614
40.8640374697 326.706614143 -339.017861089 91.5031185293
-78.0674123409 -88.6973884009 273.567080705 -22.3606945647
-120.071180477 106.726229788 244.806937432 -73.4490775031
136.091896142 -345.872454772 -47.0194245065 111.562097327
54.9834450495 212.727214653 137.865015598 -64.9515552825
527.330301905 574.13436851 -356.076607205 121.399896991
-570.413481804 -270.270801973 -56.7254317435 -50.3867210099
-211.376954832 -419.788698568 284.370113628 153.817461619
112.94379878 -68.53504474 85.8551091216 2.60083161245
-428.109670138 -555.179030395 -26.9164813467 98.6490269863
281.114905252 799.175382703 -371.815872648 -120.041434116
-93.6978584537 -134.149081708 478.662658217 -219.267881324
168.943017813 -151.321078056 -97.0600167407 50.5803623108
783.123246166 218.033792114 93.1443460088 59.380816944
-313.580939082 -304.193583939 -536.5841368 2.48084087923
-100.610161647 10.3015370703 474.41896218 16.2312345839
94.1765453599 -27.4316158472 101.261338976 -19.5687872263
384.19209523 -420.813273998 -175.058075864 79.6713430336
-135.671286453 554.064915506 -176.792475905 -13.7328114118
-356.930809772 -368.061864372 61.8367280284 47.5723296799
-269.028573812 -119.002880113 -43.5937155037 -69.7613621194
-11.7043309489 10.3040440675 11.4895753941 -13.557607086
-80.5915631395 -7.6572697804 -284.681811487 -123.436538758
-220.585504375 379.481998217 201.424421534 -66.2527390579
269.564945084 -220.526194194 207.339739307 78.528278616
-81.916122447 -237.711283019 -159.236395356 -87.0290350433
20.2615403133 444.859910168 29.1453756399 155.560214252
282.075485821 -229.489149843 -46.3186916194 -13.8059030042
3.19930794058 406.0519989 23.1207404947 -55.1560881265
222.678447544 -65.3579349638 -159.931089675 -15.7312905082
-442.679438874 -468.8689267 -128.681262126 117.403032649
-199.754538385 362.64149182 233.669733469 -12.5763736748
63.2321842327 67.5595046248 -12.9820299589 -168.799013655
233.542269514 77.8423747879 2.57871864883 84.0144922336
11.9236690636 -33.4673226444 -317.956689564 -1.24296374474
496.320021595 244.227175351 685.054171635 -9.62415117269
-508.200202154 -104.036416447 -289.841920224 10.3693653655
109.758053926 133.935832204 -57.5218592998 90.1295728829
-49.4302152616 141.877425256 -457.095757407 -19.1237436975
-269.439226778 -614.247146946 517.353959066 90.5467244007
91.4520976461 -244.653799236 107.33174212 -83.7694756163
103.745358609 313.685484499 178.472403768 -84.6754930965
317.825757701 26.7293363535 9.40653971416 33.9348193181
14.9489815595 169.124686305 22.0578516144 27.8515534474
-10.4607077926 -582.766710829 -79.3725158101 -76.1514836407
32.5308398726 -77.4923734777 117.383157588 -19.0106549508
-261.845634227 111.651313745 24.8333714997 160.835927487
104.933876232 66.016830645 -133.163924651 -70.3770504265
-101.500157813 251.454381112 -10.1510988124 4.58884592827
-17.6557474683 19.314838347 -312.531463683 143.227214845
72.5272652067 -762.819246611 -91.8291427056 -126.947703062
-299.883428645 1007.88361926 335.650124083 -54.0481194565
-44.4275835772 153.635429688 -24.9347231147 255.032983143
-70.3540609233 -190.393422506 -100.594529277 -103.115686284
111.535993736 127.966565618 6.15646157308 -45.928007903
190.174360402 186.255131977 -228.27025512 -117.665379645
469.255777007 -268.615978953 -501.935329063 -7.70930565246
-359.217361814 1355.46113731 675.126912808 24.9815159585
49.0542271643 -640.736887095 -17.4070652817 187.733008099
-307.70979919 -178.065296002 52.335339949 -144.186196177
-59.2520341645 -432.821711779 98.1881204232 -84.5499793077
-30.9767413879 -185.072753458 -32.0591014716 -58.5369045519
93.5254898431 25.5191269169 94.2185918946 -62.6292249731
82.7037879706 -49.7698272783 -32.5850546437 125.503035914
8.22495268068 -183.161593844 -10.7185515355 33.0197242985
155.492143102 -67.3868880507 -11.3325244642 100.769859944
395.179679461 140.870035681 -267.303586989 52.6513065448
-119.065579388 130.241150375 -143.370595587 -99.4146231506
-215.188002641 -276.97720122 55.657050404 39.1566747373
-34.4489391051 -580.895078321 190.09158877 -10.9340226894
-132.695605528 111.298505176 13.9696184966 -33.772647402
-291.599896933 338.407994686 108.791945103 -72.6327696862
155.067320335 -428.555861692 69.7537292454 2.93625612919
120.848301876 349.858112036 -20.7568691422 57.0669956282
-0.242359711359 315.66680748 -261.076400819 41.272505386
162.573195847 -39.1258716162 349.628700427 -94.0492060673
-127.761493641 -480.11396711 -137.290009888 17.3831861601
70.5044598888 632.74209133 -187.644441626 30.6505452652
344.553542751 451.329477146 425.423605089 -65.5330045878
79.1024979795 219.230312752 -199.135707681 9.16715150451
-274.414938804 -603.091340323 -660.153369852 -23.0829284348
-150.110445609 -183.524682822 564.457183493 45.6976057118
-380.424236949 -296.485496288 14.6457070665 -54.7233032881
119.290972944 389.230342916 44.8215719175 196.954672151
-74.2919384753 -142.448782817 -258.198025503 -149.662872652
154.933909954 291.911008272 73.2182303851 -98.0935332973
-120.249457188 11.653078924 -38.3400954327 183.592458202
297.316057248 -68.1712988119 462.676208215 -63.190087377
92.9559196099 -60.5806661025 -34.7748141736 -87.9503618933
-102.824079273 -301.646169538 -431.124601288 -6.76674505141
37.110861513 -127.177050388 78.4516543146 55.4353649872
-35.0324469968 -20.8283658588 249.142986382 -28.7413566506
21.8005874832 275.092930175 -129.386134663 85.7842578259
55.9005989371 124.274676146 -78.5015348178 63.7271667793
85.0332050022 217.89285229 -59.4149871374 -1.03110410999
253.548024208 -156.21254941 144.126049903 20.3193135572
-202.499352991 767.095978075 271.826935887 -70.9458660436
36.7923573598 -294.64301893 -76.9045512458 27.6260947348
-237.561614403 446.576803733 -45.5976025914 61.9790394937
-283.630580692 -614.286661355 -288.487355145 -52.4020366288
95.9480322551 -148.355072623 -80.8400993106 115.075233853
155.170809935 -417.402957206 15.2264751635 63.0424544179
-347.014618317 307.32240053 -67.0017275422 -49.4979009015
203.212399763 65.9397443425 233.147383282 -102.884674154
-85.4273965872 -138.751345133 -52.5346548631 -78.7721605295
22.7344760206 -277.787907863 -93.7116250516 -164.498003096
240.071921613 458.139543809 -636.171564761 64.7880211166
110.285487215 -194.271350351 393.523517617 -51.0077445111
49.488060136 121.540774994 345.946987529 -176.434522845
-386.687312968 -205.519242271 444.245229696 113.309550879
-0.751782002649 53.2692394732 -16.8473696575 192.683939875
316.795469727 -784.924392392 -523.209847285 71.9492761593
-460.252286924 1432.46793881 197.46534515 35.6628688797
108.538769959 -362.733196435 251.725735351 73.2449096109
170.520402077 -644.11967936 68.8377902803 112.638138204
233.417692587 340.15021234 -28.8259082348 -51.9799577753
558.967122647 608.873333821 -280.271330122 45.009011361
-370.305894631 -119.460601174 -18.3642234608 -183.370207224
-401.011774065 -214.423129523 -193.052169205 63.6980655172
-225.076893866 -645.701634026 -466.676709776 -84.0054756052
-27.3179321661 213.841397991 869.672678015 -147.212470532
55.5611380804 79.3423904645 35.2516885484 98.1589628006
83.768827107 -300.15640151 -952.670660686 49.136470493
-466.739178969 -33.283260815 1121.21472244 4.78651441533
311.036163323 105.441815883 130.962056508 16.290936745
-46.2511683038 192.993673428 -270.831681738 15.681985737
-260.248938672 152.391779386 -251.089253298 -100.951509465
67.2277571088 114.828867198 87.812726444 -79.4502469477
500.620031492 247.763003678 -20.7896854622 -24.0034834696
57.9313526356 -257.768755884 -554.522791511 -74.822301835
36.4775181498 -472.907694235 55.3552484819 -52.1442185841
96.9954002385 262.283016295 -59.1342650533 -11.1430119674
-268.075909464 -405.953676736 217.837672653 -38.7214404556
84.8691917545 130.420015204 74.6544555841 -11.418129202
69.3967983323 34.6415582659 74.2927305397 26.1030886798
273.872284438 65.0174475267 108.344861336 124.718837166
178.685914535 -960.594610511 120.943413073 136.872946679
-421.929584166 250.936447473 56.2779972415 -5.61569759113
-250.688496907 766.067624144 -25.92696755 -14.5819757953
31.1740762242 140.701009506 -180.019467471 -9.31055281542
218.42308201 343.830732753 -67.3374313016 148.426745035
59.5232499707 -15.0024042346 -111.780955469 225.153213922
108.85373891 171.64703372 -104.206995675 -85.3260125578
109.301049791 151.618076053 199.824374076 15.3254557365
-141.058865186 17.6274481263 -196.337159172 131.555396164
-87.0826657967 -86.2230623386 -334.295348013 -327.03024343
121.556095804 -263.140568377 120.735691978 3.14164847681
91.3624051921 134.998082805 357.983769617 173.846345382
-93.5902902012 102.99770813 -40.8025369093 7.84430689064
-183.411245146 -24.0798159101 186.644426583 -127.223734337
-87.6363376029 -99.4938118422 249.844754422 -223.844238773
-209.533654293 -436.245216864 -10.8738186062 -97.930465984
-21.6240591426 229.350044427 202.960843567 71.3231964701
64.4020534696 -80.1049248649 50.4049289267 -88.1985334909
115.919048527 -13.7785045367 -109.439099671 69.3009766327
804.25635378 259.980266885 -589.253067933 -13.9768406889
-1363.15615016 -327.307514146 -84.0194688648 -215.538817572
454.532607679 -480.511282299 555.077400432 223.901986279
72.0162303468 366.226360853 -54.9185855393 195.125302886
301.195155204 171.198140226 -151.535342437 50.3966103467
-398.964406971 -546.201639098 97.4738901525 -15.0009214848
-81.8840640881 236.098333826 -26.5952832429 112.87261973
68.6755635834 136.945539454 174.321784636 -252.076968291
-23.6690697186 -429.84237086 -358.373764625 41.1856263488
249.943911243 310.952976895 -14.563462567 9.92408408425
147.771291858 172.83546968 -158.191396073 -24.4511683778
2.79706778143 20.6743208663 -320.378600945 106.191525675
265.508752687 273.416788606 -439.164701503 -48.9622695885
-545.586382921 50.6521118618 775.123377978 -48.7761483721
-141.403578415 -153.713454233 206.622949434 142.509717462
121.321725046 173.764652694 135.246982557 18.5507359511
6.51103000937 75.931174405 -78.0528008261 -111.986500573
49.5897527126 -241.888671989 32.3318172394 51.7673187934
112.100665439 -135.446771389 -96.6337555081 0.471444044041
420.943617373 -27.9751168065 216.545243479 79.5247227054
-152.582335467 -331.267819973 -110.30179377 -19.1000843863
-78.3009525265 102.129522967 8.4149416246 -250.319047659
-58.1156677375 -131.15195267 -265.814801773 -58.2740759073
-83.539297607 771.559513741 512.644593691 121.473690994
6.3709353944 -549.480572356 -127.739532586 -35.8643098344
-237.433834739 334.84615475 -580.371993847 190.464140011
120.134293065 -138.109783255 151.324113869 -47.8126129111
2.26863328647 -58.6982279055 190.152968743 -142.36861807
-140.778633021 -219.587508032 -44.5918046975 -120.728524173
-67.3074844692 307.961774611 -8.64737202407 186.387335334
-311.724016502 -151.909885361 -56.6636671059 18.8378575775
817.411841788 0.432612633775 -106.369310736 -1.30701896237
-0.845492887899 21.1003785539 -653.697179611 -31.0934059163
-1020.4215009 -264.966241394 494.465127548 -216.899136664
124.655579161 -197.15117379 530.708883837 28.0220743917
215.910662418 339.579081951 2.97837675613 115.322722505
471.142319423 362.2438009 210.368702903 173.151975549
-18.9697204828 41.7622695388 51.039134908 177.607610158
2.52650327869 101.710203413 51.2640736113 84.9973824561
86.6269761666 -70.6961163013 -58.2921309462 -31.6476391988
17.0701285953 -38.7775708336 -28.4506850116 -190.812685492
287.829426504 8.49741706301 -34.1378349682 -7.68009323998
189.729173038 133.4233311 -183.920506637 -92.7902250767
-225.752571342 7.79021599566 -666.622423238 -10.4552196751
231.957381188 146.360317663 -59.9288365282 -140.235937662
-152.436398954 -485.000142518 -40.2579591471 29.7774681177
-367.36976701 -556.107740413 137.416597975 39.3410063377
-391.792893221 313.070439565 26.5625580503 117.637861584
872.950771258 286.013721086 120.553840727 -147.977074221
-716.090585217 -1015.68076559 -82.2509757055 121.23389865
-8.59967580109 810.94321879 938.247140908 -22.3266656953
-18.1570730293 418.024823203 -286.855030482 116.505254091
144.482527507 47.0670667455 -113.934760604 72.0945107524
193.66059248 348.665424384 -24.2414368167 -86.1423023522
-389.433324562 -1229.99648006 -139.828285549 -73.3649956333
134.509253254 91.7679410122 -42.7253728868 73.9393926361
-422.442328323 1483.13605268 6.24895805603 192.025508295
-76.0590207294 -393.623216337 626.259282334 -189.908987117
292.960014508 -391.335300065 -384.801445413 20.766823735
251.793974147 900.486343223 -789.687421947 -147.388931514
180.536787577 51.4580552128 56.250574674 -135.272544853
87.4892236785 -522.522770301 294.773925223 82.8253259759
-258.127804012 -734.837661964 444.479360586 -26.8262153289
-280.401319392 -230.001496808 139.361254282 -38.2649074198
393.164420943 -566.856630434 -306.225677116 81.80627014
-528.369375919 188.119106562 124.474862181 -63.5317682258
133.375947331 531.872362852 -208.254623187 89.7774878322
68.5059562873 12.3583503078 -690.22770346 -112.302781301
-49.5373240073 -313.530154646 950.458080739 -60.6344282602
386.469774055 -110.162080202 31.569953235 174.778645628
-142.539856151 736.928421273 422.910394163 -62.5897120318
531.019614574 370.755684212 -223.859871709 57.7564155353
-190.977333802 2.17437514408 -118.071084036 13.0534712856
762.317238617 -27.9519899147 -177.879516782 104.412667648
-225.07938556 -182.872917187 273.186853092 -168.339996009
-400.315288708 -501.886947464 -519.186001277 8.0489163255
711.703773418 -45.392174949 166.160662585 -6.33057073778
-1627.46245635 -227.67137342 -303.703703825 -4.74872136159
-7.3401981234 241.062349787 152.174991387 139.240715638
660.997495093 359.27268403 -241.306642413 91.04796122
348.909399503 -896.546824544 -171.712541946 -102.297811674
-546.663624254 467.269142736 340.10498355 167.561759055
-582.264271371 -477.112456131 -379.320453723 -66.5754395677
-70.0216028089 630.298210113 134.494574244 94.594577497
-111.448199704 -117.222137207 509.087913044 -304.188978681
-55.0155452107 1175.37574009 -115.057069483 103.649934131
362.472974249 52.1437400347 72.7289234598 -33.6671598873
270.932303872 69.893736174 134.438116807 -18.9438606742
343.927585496 -1237.34408655 129.496234766 54.8803221126
539.880036926 1221.11903525 -117.254882815 4.39875924158
-852.21237773 -429.387265477 -237.957041992 -109.677369878
8.9645816951 -943.696589156 -147.041804644 126.771972985
-489.250156914 -512.764951322 48.037511783 -115.018677667
353.304165617 -269.557381426 98.6769914244 84.5443101816
81.1982211906 455.031990764 -487.796491019 -90.1575121099
175.436030234 525.507615938 419.988804839 -33.9089989676
22.2959373406 54.8827596683 247.860783389 -41.0183450202
290.508419041 -274.108656898 181.054666666 5.21829847271
-98.6984361 630.479243449 51.9951001597 211.321836074
414.461584729 -169.90736547 64.8294794979 98.1716671671
-48.3164567862 -82.0820429121 -707.933571442 -37.3526811925
93.7050505823 -210.096562862 494.74916562 -202.184822576
229.823195324 792.645298863 -292.155210021 -51.8566772537
-545.704697081 -142.611895031 36.2870028208 -187.768729509
-379.372394772 -281.406952201 174.114591101 200.352384989
-99.8991916689 -229.205445889 95.6338875334 4.98685962972
-14.7726238707 -229.832496587 -31.7956075514 -10.208323321
363.382451275 469.576259288 -188.968334027 118.516679489
217.495806448 -412.300144117 364.746262771 -52.8576324434
-226.552614382 -119.608144947 -110.294819329 116.813583653
437.397220414 465.337082966 -442.477339541 149.575293736
-233.084525092 135.010723973 55.3701105109 -137.565545748
-797.135022144 -538.339845241 17.5520171736 14.845056216
-258.225364102 72.2807071348 -307.623597465 -113.005378434
-316.001769258 -34.8524670713 45.4974211151 -73.1270100464
690.205158138 -248.072633148 515.279564425 36.4712975952
181.704157653 151.761153189 123.718280258 35.3682940112
17.9182102025 195.346327743 -778.410444828 100.607254013
-542.544073971 -872.063584088 -36.4700253989 -74.1494298358
186.745090936 689.08469654 -150.015643807 -74.0358780238
69.0741920913 -259.607791868 497.362965699 147.292122269
207.526562007 594.556256214 134.07360209 47.0540999602
283.232208874 295.577509203 206.171853546 -142.493904044
-69.4957127407 -471.095245789 323.362299905 -130.316514585
163.300281122 656.719338747 -513.607216052 89.9152790225
48.1911331632 159.240095508 554.993599259 -59.7286589466
108.704928737 -87.3615827539 146.703548408 -40.2985048836
414.576905385 80.3874408035 -923.942782266 164.01433078
99.1987729215 333.274363194 354.737911445 -47.7687578413
-915.458844271 -983.068138577 -42.1692230768 114.583270719
-428.071411956 -39.0633475003 -145.742219124 8.56323071768
155.98427237 -124.189176443 30.7640499404 22.6857826177
4.46161794469 158.742120375 -144.610959068 134.558295822
-303.790977941 -397.309289406 -40.5939713256 97.5575199578
-24.4209578469 403.632701126 70.3931479388 -195.498087512
526.497331842 163.369054009 125.42618492 -107.069891064
290.084686968 50.5064269064 -258.63879418 8.00346954943
-741.52794065 -497.58312805 -28.0058763747 -101.729004668
328.346288533 -588.790575627 88.2596255501 -10.8812446505
195.074926041 758.054113198 171.796564112 -47.3535563797
116.717438859 -297.802924417 251.364671994 47.6646926483
-17.6485120212 191.152121953 -406.838279956 55.4553808357
-180.192398867 191.475722622 497.69079305 -19.0045922407
327.275508476 -681.901091165 -399.114023465 84.9328883219
529.019263968 1515.72708651 374.118761908 -36.5089416598
-256.938015132 -443.783405241 -960.761218295 101.26304746
-529.522528572 -482.432646606 1064.31760377 -201.415336579
70.0094024525 -92.8598266948 61.5537023759 150.193796749
26.6419299159 300.235745065 -10.797812555 -136.472319731
-300.829113757 -34.7701486692 -133.650891755 67.7840697829
-64.1054896934 147.491418205 77.7489182566 30.2471979689
-93.0778755515 -120.963530201 7.3659087711 -96.6157694073
-48.5347357773 -31.6415389305 -507.70977872 24.6754532666
505.493893805 -151.473540762 527.061600361 42.7509838373
333.591974484 -4.78678782264 -159.808322839 -6.81093305565
-16.0590854403 112.410289491 -186.868381266 35.3658268155
-64.6291502514 84.4780164761 -292.418560703 -32.8925598688
107.840157139 -404.059988141 279.823946733 -5.68594775331
-848.691386137 -849.554391728 -126.368557827 95.4316378761
206.701405348 1035.6961863 -190.926109779 -158.674412156
54.2095793529 -244.328309184 -217.504425689 -70.232429206
217.177853168 661.590786321 250.3883906 61.9766607792
96.1820785108 334.147851812 227.68004659 16.5228379619
693.1925659 -72.8177432039 -171.370124581 227.922146074
-490.460336533 245.944406296 -57.2330639557 -49.0830319647
-105.32215284 119.507152371 395.803205055 121.096092722
48.7567776162 -1008.79743715 -456.624425107 159.483817132
-298.093115144 1141.60925578 497.915846823 -251.816416189
326.868911398 -690.558391644 -396.133994718 -131.885015004
-70.3549877732 -920.616946926 699.947908318 -110.13028184
-78.2185158951 1030.4415454 118.321808796 47.4284772149
-16.53816869 -993.02510299 -256.687456896 -23.9852983564
-290.597248961 1309.72232041 -339.115810227 -126.404097654
-295.295806882 -253.927330106 -87.4983393372 -8.43317023836
-131.894089565 -456.103055791 -59.1791241522 10.8684707492
-951.990578082 -179.892509409 -473.314070514 -171.82219336
1064.06293431 -215.976358397 706.612508394 203.844456132
345.772496895 140.262060302 69.7708360739 221.670978905
273.154909817 62.8988216848 -44.7245933217 30.8396665576
259.595419253 70.7633159908 -286.121796105 -14.9265884799
-105.388344683 305.503708287 -22.065263848 -44.8006352323
14.9288871422 -370.020421218 -19.1820284488 -48.6383999679
305.095103161 89.0733643176 325.192732354 161.535891985
-126.106352808 -1164.46459158 -714.419640601 233.325650252
160.34404097 1592.98989784 1147.61889674 -397.154473407
-123.880976962 261.098420015 366.565883419 29.9196046342
-433.437335753 -282.70441819 -482.028270018 -2.36151495692
372.749458903 -161.941594506 -321.362839616 34.1019169901
-1025.6059187 -423.060071845 -253.50085252 -15.5693980337
468.094155345 386.573313491 319.616187043 -36.1907680623
-33.061051117 105.460585968 171.054310811 -30.7155059035
82.9873872093 -349.599382747 -270.129273965 -12.8640237044
803.180777679 -320.174466036 -334.466080828 -63.780166419
-597.060435918 -924.325743597 220.991751788 53.478578876
-255.137009246 821.123654701 83.9584763224 224.742070135
-348.531367712 -311.413252381 -349.179724982 -108.128269187
-439.946935742 218.791607177 210.104233259 -45.6822934346
631.92607064 539.576294814 414.144847876 111.163619836
-162.818045385 -66.6139273862 62.4764326242 -145.876505202
233.968843078 317.450799468 -189.125333367 -8.40140026614
-125.429742353 -396.787125792 -427.897041201 -96.7622771091
-156.434427831 173.519627701 -53.7266770091 11.8421477215
457.594320739 239.783122353 -83.4126049772 23.7417478958
370.497701428 46.9389162975 165.428509336 88.6405209348
145.833611255 -740.119224425 -113.36286337 -227.081214023
-102.55957511 839.891365938 425.885217092 -52.4201895322
114.693039961 -618.012959803 -352.707656406 180.893504526
-1062.82501457 778.401276376 -156.550689814 48.8028789304
362.755910216 -395.071341074 940.428581403 110.148115738
-153.734884608 185.249461108 -167.188052137 89.7728232332
45.840606907 46.386641891 -163.090585646 -84.64569572
135.903962534 -190.265116108 -66.2920779143 75.7965333888
160.194651291 86.0806756901 118.535676739 25.7652430022
291.987497067 35.3897252281 143.544388702 -171.544797635
235.047268511 -84.1678383107 -79.0296333699 1.15873323725
34.8498312155 -446.070325191 -8.56043778751 -58.0390461134
-482.186420879 381.514420575 -556.021993004 114.909414692
-162.414556105 412.129906261 -410.921773322 -38.1010423011
-120.755492721 -200.185749194 305.447232712 -30.1117777976
-392.509544605 -130.331678855 -401.337186029 64.6702454753
411.753709496 62.5673591145 531.905835773 2.66639591393
210.186208008 -9.62383747273 373.12689412 76.5976274487
-211.457292405 -442.257168556 156.592059742 -192.218295936
235.62420751 -266.696241891 166.939691005 127.332961597
-356.463966654 -79.7683719148 -181.472296716 78.0505571301
456.477892157 113.063206749 -366.084330633 -92.9988557233
151.537528069 164.484180477 -5.49545657196 25.7390042814
-414.648117626 685.383687118 -690.309449097 -108.228368532
597.42201565 -596.504977138 347.55901917 -285.498855765
-64.5137930311 1250.26739851 708.025609075 68.4319663317
-333.00825384 -531.25862558 52.3863146239 161.099755146
16.8318815035 -487.819869811 -551.335410137 142.357021293
302.274894402 -403.530222842 195.057211975 26.0699077182
-622.359900134 -198.972819601 -322.216823143 -212.432935771
-317.976033755 106.112669806 470.688476275 267.689496787
68.4001059021 -109.026627046 255.334992971 -16.3112776735
43.7486810415 18.7982570868 -117.321815729 -237.414450969
431.320698338 406.074427182 -275.763809969 318.811193132
-198.346369675 512.767706817 -34.3700134697 127.987503367
-361.996270076 -186.896153094 -14.4711105195 -286.223659381
573.153998344 82.9013310369 306.121410642 96.0659315991
72.8400137346 14.8044821831 19.1560857654 -47.8104018589
115.256305012 -451.301562753 -59.1967040937 2.42213089031
-430.716678685 325.307403403 -284.527209008 -5.90815849075
173.453424641 -512.900608915 116.96311647 -10.5072490575
371.639985182 81.1297617428 -362.546135861 97.7121788229
-153.292079421 -32.3577814556 13.827440037 -195.66653969
-171.289870935 106.214077801 246.973274079 4.59679120842
99.5482864724 167.629217866 65.9254380447 -16.3603893671
4.78594456956 233.724118374 90.979544932 152.903337785
-3.77750348149 -153.40741984 -264.786510019 -102.723785186
480.604053199 -799.022522264 -443.937710145 106.024918146
-666.885691765 1131.85160593 648.433566477 -162.2839506
-327.618142589 -412.592331081 50.5034467595 64.8125659783
-20.5642969202 -218.831461362 61.4924738384 -46.187952441
121.770570255 129.097068719 36.043880043 -108.252291444
138.07736463 418.696044948 -8.82284866787 19.2333861586
119.461515196 -192.151606386 -246.421018097 160.688253408
116.374862018 442.064228035 -176.981347332 -183.234551446
1105.71667127 -788.17516248 -705.094271092 53.6791733399
-410.127826757 1043.84369393 1537.02930272 -143.847582656
-721.816059385 -877.723667017 -15.5094917539 42.7087099953
-149.021145233 -227.921569832 -185.155759975 121.554335013
95.3427858277 -220.45074307 -31.7380823932 94.7692078535
-64.6383277652 443.599313192 114.423047032 -10.8948224288
-161.891282542 141.054868133 11.6911316879 -109.875552513
-104.52152184 -82.820377886 -33.2063712764 -112.589141664
148.38192618 -671.26960584 -305.030556534 196.185890056
432.427042534 744.522808031 -148.127566968 25.2251971115
817.097510262 -416.662207902 -668.881772678 1.11705672749
-1302.71270814 197.299753971 -402.637167556 -142.13990409
1363.93084554 -177.940627717 739.051362265 262.992103685
-742.369841239 312.035651648 36.1572165117 -131.648304406
-329.128642573 23.7855274347 333.433615482 136.164397166
-302.624381337 -193.286500277 147.899760454 -20.7527964794
-88.0920480734 -13.5254218255 124.085188362 -98.045730049
-9.03167383487 -5.5826993381 -375.047608979 59.4606706437
1127.18655311 -632.76251763 -786.352063609 79.50377627
-1399.64137271 -398.557800276 459.940243187 72.6959795295
155.854033258 593.074721028 317.410101691 -13.9540179211
-248.656860365 -116.455464384 -53.1036643812 81.2864246543
21.7540434154 873.814918909 198.832386978 -189.995012923
-87.8960013214 2.72143996048 121.013059406 -56.5080052004
-136.990117293 -154.697907002 101.146069714 29.9535577273
1.98240291366 -0.750509902085 5.63039024943 -93.3583741768
1217.41262805 -948.191662679 -496.179293411 113.642241929
-582.651886046 1820.64319257 907.9116066 -160.178089699
433.598438551 -199.557549608 -187.772303194 13.2427874722
478.450190639 739.414754853 -151.525280099 -12.2328605871
-208.943676201 -641.745875016 -300.736233016 57.5697724609
-336.452319881 -409.984907832 66.0109394171 -62.7012575349
-85.7185275838 65.25525462 52.1482637806 12.4366974461
-272.347710485 -299.460775342 -255.404697584 -7.25326944521
-58.487219805 -10.9405541215 42.145470253 80.6787132632
289.668474483 24.5116459046 14.8823814276 -26.0331196025
228.821250702 3.13179746288 -66.9246510367 -162.101966482
307.73117318 -75.7330648933 -23.5870085084 137.309854737
-193.608608001 205.724309981 -657.281013845 73.789445565
136.52940293 -465.722555768 385.911726309 -186.719553041
-357.711337907 41.5518367948 492.97961011 66.1304496376
-117.505340475 162.274737486 196.345041405 -19.3962296992
286.234011292 274.111513383 54.1405206846 -45.2291782215
-305.565231071 -622.910412517 -310.544837379 208.885089706
-82.346093651 57.6317888421 -237.438743642 74.9251020907
217.34932904 -409.827256921 170.64264454 -135.105926636
274.63139466 91.6095520906 86.8996415876 -107.969742607
-159.303777073 510.577667723 32.1890197839 29.7844372463
174.011096655 -263.20919406 -111.218542161 84.0597407136
-503.866506172 613.531026554 -270.160863085 118.967171829
-414.499337599 148.486878983 -35.8419495592 -30.7754364187
-219.488797044 -408.196286968 196.950536864 139.35616002
396.432408101 55.3520338773 114.524962756 11.8444139755
89.8891325839 -71.0337495518 -8.20220906844 -77.7693613866
202.669296096 -420.716209174 135.047641826 -174.080135649
-270.461799825 298.336367402 -451.025668411 -29.3150157267
466.866334207 482.253564308 751.503597212 -20.6780383684
-155.492899585 -97.0301277512 -81.7279171325 -21.3512192237
-203.733747069 119.755558591 -688.439041341 -50.6859090042
-13.8908844234 -632.430311593 76.8427004139 27.9280217167
527.794682827 338.315082486 162.381280758 -38.2420078722
135.334155493 153.382919951 255.747732913 -74.4995489262
-570.92404688 -387.776623745 -290.340338872 57.9109139735
83.786731935 -520.127381322 -135.016181824 29.8627261287
-397.982422436 479.824953751 301.096970097 100.505994187
65.3369468725 -136.02670696 175.833743265 21.0397644099
266.072222744 391.718711894 -66.2607831537 25.9400025207
121.362124051 -204.515588776 -182.29545636 10.593588546
389.265085671 600.413261323 229.50364915 14.619409963
-143.385942056 -708.995302425 -153.162877967 -128.022966753
-85.7857281063 1012.17549188 -133.41436008 168.466737258
3.57042450984 -175.512005942 254.368694666 33.5503224145
47.1288548603 -335.626415862 -44.032740846 3.00265383826
-12.9878441609 33.181313652 -104.426575139 -94.1761552557
109.652181504 -959.574156752 541.713079987 -99.9620596107
-164.980467674 1463.24406499 -133.552182025 170.172188603
-828.771531668 -306.77903957 -713.130612937 -171.482114755
311.641223029 -202.066816692 -305.071747818 -132.591908869
28.2791750817 -238.689383562 124.882346238 129.288304982
192.88399543 -12.6223596372 434.184199427 -110.872571957
67.899136485 -219.953987874 60.5675647114 90.1199141851
-298.245538089 371.534123845 -174.218824212 -34.2763263788
692.116632994 4.57322824286 205.100852916 -37.4759262936
382.532300328 -295.094944817 116.960554452 106.336099667
22.6119566164 740.699272292 25.5836812355 0.516799724214
-622.300469326 -316.308609749 -552.715145963 10.4133241037
-300.262854356 -765.003756379 532.931822328 94.7454443677
83.474682458 625.567828381 47.767625456 1.9072375951
-191.242294537 -43.3132790534 -449.712406943 54.5852614188
-181.40229594 -675.550620452 100.077076675 6.93266416642
29.1546379057 -980.742459909 -48.5311020334 86.4706451851
155.177035457 697.903979371 169.764377501 -89.918493195
348.198179045 318.524525078 144.144365012 -80.1988225814
-0.370745645605 -26.5164120829 -71.1269024092 -53.43907803
272.503444945 604.589084651 238.225411044 57.570328111
-82.7197394948 144.962415072 -498.621834636 55.940458768
297.160332958 2.79315165265 -617.241803007 51.92731073
-278.085716916 89.2406247345 788.614272928 -96.4891100996
119.061557443 610.300087999 313.917144129 -190.902737184
568.454738328 -358.73832658 367.679572466 -87.8286424676
-790.563947997 -633.480716094 -301.56803417 57.6493030823
-32.2878654125 -172.070759302 -161.439138098 -10.4818225105
6.53699168797 -7.04195448376 352.45956754 76.2571037539
223.985430216 267.103857894 -43.8105898183 32.546259943
12.0736501423 -545.447455446 7.28167659593 60.5344514033
184.146589299 862.202125833 91.2256018045 -171.889592675
-705.560944102 -428.717597397 -288.656819117 180.710390406
-229.534046273 11.1215572626 -375.48550184 46.2651013279
135.668717 89.6562881992 -131.533774124 -115.337521658
94.5824827316 158.77054414 -39.619649753 -32.4578046198
-103.922124685 -161.858724047 -294.792936404 241.963124481
221.349847607 304.5201047 -137.727284202 70.1689365916
-122.964264068 -1080.69406484 558.772472147 -57.1774133559
-36.8207377805 1521.13205585 -22.9784743774 -17.838724159
65.5804444189 -61.0556060616 -133.05696555 -44.1708792221
133.516724778 55.4135157819 24.4719746135 -24.8011672472
29.8088664609 -362.092319647 -71.9288301484 -45.2380024792
91.90930064 -6.63727224873 161.47653866 32.7592588445
651.628725682 -1032.79080201 -193.574507725 57.6655392437
-862.22835624 315.323629552 490.951281833 -34.7986991568
-185.145482636 -59.733229932 146.295069366 -11.3959351991
58.7543513879 76.5937062591 -24.4595990387 -101.003637402
51.5781105793 180.98901293 -261.405893737 1.42925181374
-49.6189471818 -190.043389674 -20.0267387244 106.728878132
133.644028631 120.210814858 95.801407112 -129.152949171
113.917082466 575.135674172 -106.212794772 57.5036901117
422.663974656 -128.77724143 588.797895166 -39.9558097964
16.2754676232 -383.113438773 -414.173517479 250.336898989
-21.8894718233 321.65320031 -17.949690516 0.922437097664
-80.3377756705 -24.2022499739 -130.711818083 32.1970605866
106.643146151 -759.334780994 -123.767300941 -4.32080881753
-487.890200378 710.310716593 -50.9466423431 -154.93258682
-17.3888784242 11.275769243 192.378577988 -103.444732022
256.110895201 167.92091529 184.357019585 -98.3033453012
-100.685773779 -163.204477524 -347.116705034 -61.7806507353
1081.42337978 490.687730331 63.9002418995 -45.2696550429
-1009.88677473 -705.991952847 -512.975398654 53.8924382374
-316.956788079 174.396176798 570.89528211 39.02695366
120.3858403 -67.5063793966 -292.416669505 36.3995617973
-230.94108097 78.5195243251 -145.88065105 -54.2900682584
-228.113828995 -53.7995219281 267.339595329 112.421407433
-488.456759782 -41.8608048922 417.867095758 20.1170390447
-363.805585867 -50.4729402682 270.656498132 -209.389857285
58.4399814528 -8.19527390229 -5.59500177258 -7.88310131907
858.958179824 169.130824157 111.672852147 110.151187326
565.780881723 -16.408573347 -527.106661271 37.1709503298
51.6800437629 284.990412735 81.9665354161 100.371626468
245.055682669 -1268.55637349 -132.668906281 -12.0634859803
-603.93974319 408.429268147 -225.204722158 176.225008043
344.96789706 264.585456223 299.582431704 -113.056143342
-100.863162625 -136.846738769 41.3380961931 99.6856049527
36.0935474028 1013.45939265 -142.214590556 -39.419697407
-183.761241237 -141.830239024 -103.203228112 -157.496689322
247.15528997 190.034152839 78.8480659349 -45.2890381579
22.5146328493 -910.146502374 -214.940898807 35.4274931334
-112.963266097 203.484203813 260.564345955 -33.6652122902
268.235547968 -311.241348884 -236.539569919 99.6327578954
-112.409444697 1146.22584748 -1024.61606659 109.041419003
-547.305061751 -761.826876615 1155.78500356 -179.123708652
71.7011389412 -118.135093272 370.456222865 -54.7311003627
-110.490174644 -97.4206298929 -5.62815526269 -51.4950031312
64.3046021074 115.169760774 -19.1563196782 172.456713654
111.695034022 2.0428614515 31.9513681366 52.951193996
51.6267068034 -98.7492722626 26.6776214855 -28.4768787188
129.089885311 41.7633507985 -21.7490041861 56.9067756546
482.544535671 -631.082316965 -13.7899372997 26.7231967828
-300.693156161 1033.11692271 -422.794012772 1.69745316653
374.513526211 238.011220776 401.94466279 -219.777737982
-181.498848669 -299.946931117 -258.177369603 -2.75278381
-264.043834268 -172.051316584 -57.3840233431 -20.5420205943
-44.5545980984 1.25638823413 63.1708233764 111.34552012
-54.9788661346 -47.5644211387 -80.346552329 -163.180453312
363.24574952 57.3704524714 280.991807516 98.0472920797
-63.2446732342 -462.148043631 -107.779351098 206.367344801
-227.708216551 241.05257227 -16.0417457749 -24.9738094464
-176.424145131 -88.7435026606 -119.781753811 21.9642940074
73.6157258136 24.7577241423 -53.9815045072 -112.035474773
120.286003374 233.795866644 -82.6800899412 -2.57021454932
122.732550223 277.60469032 -206.64623424 -99.5868541235
-257.144059152 43.1268509421 137.498260681 153.230640027
-142.706341205 -1156.15158912 -140.142104339 69.9746929662
-420.730782797 551.363913721 -464.264486652 -121.76166553
-17.1929812402 -233.452450749 611.646979975 19.5923109029
64.4841862749 -82.4038434281 -0.757120010303 -77.522893627
239.881606034 298.662567432 64.9838468899 145.515021556
321.614720493 385.123322293 307.380374553 -38.0931281916
-496.452484022 -4.58984259154 -202.774172787 11.6229193607
218.315230851 -385.242503225 314.476782726 -57.5376730396
63.6989929515 317.389456931 154.792488711 -46.3041103418
140.751444957 173.92335658 40.4920864234 -51.180247808
321.755530876 -7.22270141379 -82.8583365861 43.95992776
14.3565200737 -88.2600199539 -212.395969825 83.6214897389
63.2548868984 -112.468414363 -36.0839837429 -54.3368901271
-69.0619573282 -31.0303015206 -37.3701049385 -62.4439625458
-13.7207503281 94.1930720085 82.4861841006 129.489283134
-231.152743488 120.398103773 -20.3498615441 -34.2341220345
-19.6163842888 145.600466352 -42.8652952297 69.3474088736
-39.4939571077 -100.69010277 14.2544179926 -13.922118662
159.389900393 30.6030199688 -26.6912351278 37.3709654915
568.545089455 15.3202771678 -436.475371612 -16.3784245478
-776.003742142 236.214013309 -451.220070389 51.4224460957
6.72137350843 -183.872795096 346.871895995 -203.502356571
-272.311647481 -147.158467709 -4.24324250297 107.436573278
96.3247792019 -398.193458114 284.119627832 -262.654212771
59.7041145555 -12.3230005927 262.338190159 302.973975674
118.706158259 54.3522841249 73.0279633632 -112.079656705
84.2165799554 -810.216579451 -246.737740471 -215.527897376
453.664392345 219.605667731 -591.873880654 98.3924211461
-200.938596537 1312.27504646 609.946835373 -98.4702629416
18.0381426149 -179.566328033 339.492984703 183.5752877
-57.7029886928 -117.563711938 186.645409319 -28.6936860888
178.754673482 169.303322782 86.8860207524 18.7995118189
-223.925787189 238.486811609 -64.7183855484 -30.2243068774
-153.993267043 -36.9126179329 7.20616499842 -3.4758467971
-14.5140446116 -359.009174705 -63.4911367407 64.0100547834
176.72458472 84.1964074804 34.4805211236 123.866933443
116.306175673 -618.738263125 -136.505033545 -18.8714030289
-252.889570324 125.486227271 -458.034932041 96.6769486974
-19.6216036005 -87.5353769602 46.9037528944 -258.51542491
-174.604490381 79.669635641 256.184339058 -0.797189311265
14.5554000947 93.7174065812 -89.5254205579 -49.6249774261
-225.956971437 54.8228409172 -139.020530642 -3.65826638369
-136.094610546 -141.737543947 60.0319107306 20.4452785508
-228.31354711 -174.315354571 -31.7903749761 -7.32212149153
70.2168489374 -187.045575207 4.10584947757 -29.4531062028
200.13034146 -206.377750669 -207.726124458 64.529666457
437.799512991 484.356650798 -164.679984855 34.6014767301
-211.257039993 221.158275914 -181.385232771 -154.854889119
500.624676708 645.207254528 265.853349693 192.212683633
-216.330872813 -228.561419568 210.240513885 20.1417338062
-151.583407826 -201.846542472 139.030061396 48.2844851682
-62.1841349066 -141.162458977 -208.332694002 -42.3503962735
313.44428903 -423.245643386 140.676759012 123.5326123
-619.950074922 257.808656341 -295.73571353 -98.1872432615
1088.04247299 96.6874855732 692.125200285 -19.4514829648
552.874588792 226.373867461 -631.211856035 -17.1830114828
-1324.1919137 -840.805741083 165.654338544 150.840967721
-313.49650076 672.384869636 367.946386532 15.4975187686
-93.2927084771 -149.213745964 -12.5192802251 -136.430331676
79.0540395791 48.888036226 68.909926646 -59.4936101037
-50.2189020114 -67.686646046 -40.399269249 254.25804507
86.8191669573 58.1614900245 33.2398647464 62.5099076571
194.765273421 130.64625071 -14.5114174207 15.5706748443
308.541995963 240.134825192 -206.149243276 -144.758923535
337.472128913 91.3079624584 -11.0415942944 31.6209022812
-72.3785942042 92.0145670454 -105.64737617 -85.5440939548
135.117392285 -67.1588962211 41.4181661869 -218.657867663
-40.5686424519 -173.114767008 -126.153730802 -73.540915639
-103.761783078 -59.5045877728 -16.7401795863 -41.80376363
-136.880181671 190.602804323 177.408652774 -35.4111434243
-276.354464179 -378.493648098 -369.006534543 18.4210955506
406.504968664 -512.69498207 -14.2122960874 129.935515267
-285.412640971 432.030022208 745.83446056 59.8985305637
-322.402344086 -184.72344024 -133.482031058 71.2179175161
120.705201751 111.125189696 -51.1686029353 41.8977484358
4.77867606436 -149.925111019 -34.7024886135 -102.799568585
461.959570754 285.019637228 92.7076255232 14.7309298371
46.9981930442 -1011.09160861 -185.646348901 -36.6416639661
-1122.21586791 -0.605604923926 -108.088173206 -57.1635387806
-218.476172181 281.654107969 -117.790207488 64.6776010803
161.086096192 428.429845892 -330.281665736 2.54720893718
560.368119056 256.412055742 119.437508208 -17.1893922497
-26.4576660412 27.5614756533 -67.4432084613 -1.83670210836
250.720674902 180.876803868 237.332333467 94.4695111137
30.8386914682 139.611323465 134.30644338 23.3904668307
201.419760853 -283.529911604 166.387261337 17.8200759578
-175.013025219 556.735271718 -220.335154216 55.3802466962
635.426824798 -9.80986571917 336.305140878 -74.4797478772
204.977432979 394.92754428 -343.053915846 184.164253034
219.419686138 -90.7820258519 -146.101959511 -191.039498
-638.64643207 -470.13689793 110.29746048 7.25603688563
248.390917501 137.762259799 -80.2542294331 41.2326144178
-551.138098674 -54.8359506609 54.7801154397 -126.106336675
-381.652602947 -241.723082651 216.942976035 74.5919017464
-226.218357096 -94.2097987691 -39.1390009525 -64.5136757956
288.558690246 -643.42353529 235.134700735 -113.517188568
-108.225266854 65.5442425198 -403.968172258 -16.6945018428
116.894673985 94.1409341387 -149.048221723 152.269203981
284.180955011 56.2470036623 122.694508175 -96.8454006817
-152.878082832 -245.903830878 -112.17939471 12.5785831772
115.470308649 341.029113827 590.765884017 244.562957638
-229.162991909 -22.8109018916 13.682409233 154.731929642
-47.8480388538 111.093341876 -178.068808923 -90.6918226511
-29.3066851561 314.586352393 -106.549505064 -335.021329013
-359.733317184 -480.294338472 -34.6783188259 140.3098158
489.954368432 81.2343534347 146.543909968 33.4137963228
131.138868075 21.6101204688 22.8441841301 -37.0599398875
-11.3806785396 434.69561947 -137.58825785 138.143737494
372.128609187 459.354060884 -372.887821854 -106.722634324
-44.718124116 160.692421253 -102.640140622 -159.698762465
-436.270383055 -458.500780435 482.02171984 -100.299391379
87.9005955988 -171.448459976 105.303317795 136.240928085
58.4516226724 -114.360904201 7.28913307451 -64.9311306979
-47.5952633928 -135.051811217 -31.1267784116 75.0437692198
-45.7900352092 -37.7000279521 -17.745972722 -93.0709903288
314.152751433 185.451295496 7.11261686038 187.910967103
-203.976461849 -315.068391835 -412.98267341 122.527371703
-378.376226383 -415.551975641 381.466222531 -252.838382524
141.815971228 208.194992639 59.0004603965 40.9365452478
323.658130108 -111.207629758 78.8153824655 -36.1336102822
-99.6313074817 346.451212783 -105.207693812 99.1949118091
14.7027870424 18.6145408245 -13.8090576864 -162.465668901
-228.144100653 -144.198505883 -83.1465788424 206.10425253
-187.558748189 -37.9749640378 -379.57645045 -45.106620161
-114.681246207 71.0064172317 636.207365467 -63.4349737433
765.119645294 359.892708927 -156.372919511 104.688248846
-248.309421229 -81.5656729438 103.869097753 -128.979366527
56.0516150459 675.040618848 -364.873493487 160.00680613
-191.497516401 -370.759799223 243.901463638 -65.6532972271
-96.2201580168 -545.784985376 44.0849689422 73.4192599196
-234.548150931 431.90158868 -14.2522702992 38.302785998
19.9019901556 -149.983739889 29.6087497953 -66.6912424842
25.9643838942 -70.994366299 -48.1021048463 -50.3115221677
317.96637199 171.79003004 -49.452434482 47.0531146743
219.373660228 -294.230503852 51.8476796356 -82.1314977315
177.047983196 -219.622144551 -36.2984389254 102.257642882
183.891145086 324.631816093 -227.01905102 38.2682641352
-253.167616469 286.78340687 -44.5412142693 -77.3881316328
-249.062750948 3.11928676307 -193.367044936 -135.492658115
-11.4000799927 -534.180403173 369.917144889 115.598403764
-69.9920719378 -101.314842894 25.124311846 160.60933771
-64.1569795843 169.069143633 42.8640623991 -117.525586663
16.9982200982 61.0653059158 -23.1877910304 14.3776455011
50.9172365275 -16.7279457772 -36.1951612199 -54.1444967449
182.028780348 105.615477181 -108.654586498 12.9173054967
138.202903112 -135.522920342 -109.154352133 -43.3370726759
-277.107237606 -585.186175376 91.5643736796 -15.8186390953
-99.4787482865 383.48763697 176.518650754 -89.8215826279
-28.4249875254 179.852451898 15.0964240077 -93.9903700046
48.0518928152 170.374512148 -16.0168820086 0.388618802971
43.654678889 143.952019628 -42.3193560443 -43.7436953137
305.016676095 293.253551578 11.2531249545 317.438054249
-102.328340692 -20.3747579506 67.8554028019 116.609433401
-86.2645778962 -118.66839416 110.060446142 1.09778578954
-6.44831794648 -88.326663882 -57.2593950286 -194.084361365
-263.26458863 -70.4714900441 -84.5232318025 61.7506398334
-17.5676358731 -276.027996798 -194.360965554 13.0884552874
-27.4043803081 249.399018004 -8.36685094821 -12.7811095382
12.1126004719 -429.522740104 -280.735854548 62.4181423385
-73.4620647423 400.186934839 -31.7682178279 -63.7646329952
194.618144764 145.255461163 473.445496817 -131.242086402
428.988280467 -5.33601801326 5.57681957529 12.4151712039
139.571104243 375.720235667 281.046033368 95.063548923
155.515617433 71.2755060698 -196.662410257 -9.54960191182
-721.714861208 -567.481110982 21.7957409068 -98.8419973179
-81.3154390277 25.2329134227 80.0045021513 156.858861505
-82.3874220617 -167.886810992 -8.02016650926 83.82386835
-71.155757973 -177.28464959 -10.4130074292 -121.236536608
-11.7582409668 -147.195315915 36.5796317301 -81.5965350711
143.159766173 198.668737816 -253.838945276 -25.8125997953
-20.3854123659 -307.904583921 116.408319024 -50.1049018718
-279.242795625 -86.8000563486 -147.924339941 104.390631408
464.564370729 119.651284895 164.900213214 -19.8301198277
351.6448094 -39.07183377 -608.489638379 193.98974204
143.657740215 -302.091327935 228.150792779 -59.4317744133
-734.468126959 343.512954495 369.730783395 -55.6934393159
174.096577776 320.903891969 20.9292814865 -24.1160730568
190.664238384 120.999662649 159.708252988 -72.2149364262
-231.014539363 -57.7204976727 -135.937411061 -61.0505365309
80.7960914544 121.482382098 15.0691231933 57.9479080768
103.561892185 259.958726762 55.0637867771 -168.521559683
-51.2855356332 140.767767233 -566.588182408 109.255056095
301.369737809 263.643448422 421.519895088 9.46502816311
-244.70856903 -386.766983545 38.2018031355 201.382157261
-53.7202887198 -246.657173888 -132.363305517 82.5086836478
396.770749895 124.390246689 142.938691957 -11.6526908621
27.1492447514 -57.9848547633 43.359155216 -139.050520279
40.4083058305 245.353399084 -25.9646676933 134.681927598
-21.8221083538 -218.315337806 109.541204016 -19.4076819614
-350.65691604 230.367137515 -21.0239897534 -44.045337968
-41.1971011897 -45.0128713285 -46.5396564295 -85.5473048633
-70.0317267504 -135.298254985 -110.466184032 61.5140452878
-29.4671049605 -183.513328169 -97.3099394984 -163.400304925
-177.082173599 -169.173133416 -109.605114323 10.3075088948
208.570821975 24.7478421709 -362.833945573 209.143050827
238.542599836 -135.58647362 230.357798656 -24.8424064555
364.767565044 147.143784666 248.44484568 -34.0500495487
-810.706800229 179.968933708 -258.789602292 -123.344837035
144.527548811 6.00964209133 264.982720684 -112.998228002
-61.6331951283 -947.009196284 -110.746065959 97.4373954708
143.139710351 472.907028101 115.260135036 -95.3032671302
-274.286510903 70.752070544 158.135121399 42.3692324484
57.5821805641 143.097579474 159.401544326 57.0554852471
59.7619357019 208.982154761 2.77695537582 121.173668389
328.72622819 151.236982136 250.227174816 -76.3641611016
76.4836718717 510.6163802 -589.928595675 126.244485665
-274.089402975 -375.787542755 568.670018223 12.6586388742
-127.203727069 -170.836775991 -290.009034481 -74.5880899368
12.5374284393 -184.806411988 -136.959025801 -25.1450167733
-47.6898572266 -40.3819482115 -57.7202927778 301.428558489
-199.077841439 -128.321545232 -7.06050976988 -169.176249655
303.491944344 -1.94687083688 -35.967148533 -213.186255133
423.713135453 48.3289982689 223.814932771 53.0942547219
302.30200245 276.551246633 92.9166618707 -94.6036347851
58.7543347169 -51.9324979528 71.461105008 -171.450013735
-264.51783842 97.9535353709 -366.540213442 2.79557396064
-189.22955956 131.388715336 -108.352743813 210.413768372
-19.0360313902 197.13591586 -343.776304476 108.582699589
51.2024486001 -1228.07126187 -48.5670282787 -59.1068624361
-544.53260136 626.199056665 315.894105327 -70.3939012758
-127.836266255 -5.42708747587 -67.6223972142 146.225173965
142.498703707 -125.197841186 290.782833427 -4.56252703496
-81.915761232 164.660901504 2.8799780295 67.9447361854
157.849510513 148.276915752 75.3504375071 -52.7132047797
2.89191512441 -4.47387398776 54.2664272972 -52.4928628167
198.088043871 327.044139698 -122.636696049 -3.62402848279
-27.4803926804 -172.062111562 10.295906601 -137.927250975
-287.235770516 -113.293725795 -168.174316496 -26.5467703077
221.760371947 -172.046105993 46.786473209 67.709490774
310.736247767 229.915439279 -97.6849273851 211.134929633
-143.788233734 -128.641474231 -134.120330351 -77.9341086917
-207.434277295 -56.2408168174 -29.370691632 -155.048324106
73.1853020652 13.6105266833 210.897247494 75.1502102236
-207.552555413 -42.8555530879 -471.663885689 35.4136771482
-229.71777244 -118.436920478 772.05465065 -14.6381397152
287.678155517 -4.28282910168 208.590907242 -56.6929296539
15.4594499067 -90.9041328793 -122.428567349 61.1677481595
143.21416353 281.82813522 -70.5252929109 29.8427484462
179.140226866 -83.895837446 -100.286398749 43.0933042581
148.398427986 29.0944956272 67.4666220425 -184.519280063
-408.85629937 -77.4730341283 -79.7545674839 -184.182670445
206.341133233 86.2767319744 63.4645741696 193.997719059
-45.3056595523 18.6540222989 -84.1567145406 270.403814958
-209.386437007 -10.5336692482 -123.076239344 88.0039480035
-6.45105169085 -48.0070353351 -107.108581085 -94.3686337375
38.0985287953 -33.6136249733 14.5770411814 -91.950380101
300.604970161 67.1359459577 114.740809977 116.905751734
-77.7865596541 -113.293308676 152.280029558 -54.1804448242
-108.980976702 82.1849130303 -96.9557596452 -79.0889431861
60.3134423512 113.151813714 -49.0626437374 -23.1312591774
-75.6795694976 14.9212669304 -42.8829389964 -105.136098638
87.4739423218 261.357651035 -107.451763494 8.53132101274
-25.7295114561 -836.282866106 105.431125833 21.0089381686
-228.532772405 220.957968945 -86.6012047641 31.6515896604
-323.456154739 202.471984057 -417.329915878 132.095825797
674.591452055 467.209839546 655.482834853 -117.610204736
-56.0117663776 -207.072392713 143.339353568 -21.4482940224
-31.7138812118 -38.8039817677 -23.3671815595 -45.9481755751
-57.9061397537 -118.119426089 -32.9409891526 113.658077338
-144.89683812 76.9553461617 -95.5231399853 -95.7133655539
34.9663415114 12.0111217447 11.9056668065 -58.3745747581
94.6063625009 -707.477789441 47.5368628897 47.9547104294
-55.9258696967 -26.8007814107 -121.351251239 188.948988961
318.542437085 659.57641161 -275.734003679 117.601314711
397.042593749 101.927116346 -235.468298787 70.2910808398
-257.653719951 -308.34548779 427.968075268 -179.228471848
-154.135299617 96.9496353515 152.405060155 -106.159380801
-243.44538229 132.393611754 -49.9538857019 -11.3715640695
-198.211371875 -42.7845596672 -51.2903427068 -31.8176177974
-141.808279254 -18.5731718644 14.6301738861 -26.0027403397
-4.10680913492 23.4319859394 67.7712945642 -55.4927781801
-69.4111555943 -174.385543505 -338.54353613 -109.396183257
47.9674392424 -46.2089211835 558.970907499 30.3404339131
243.137346187 130.914462575 54.5660860904 37.2845033863
321.311093152 479.831334315 -163.402883082 111.44026588
159.973187609 -55.7157854265 29.2592736504 -91.385876744
-244.486668976 -188.536343473 233.150007181 19.0862900998
-156.480318493 -130.443049474 -261.024484571 -91.5815515155
1.76992730526 -79.311213121 -72.478736327 227.38252186
68.8726248073 0.94112529126 66.85175561 -24.1007608345
-25.5941603798 -455.089288725 -10.2592828964 49.2416589906
-193.579524605 58.6037049406 -169.80410384 33.5697444143
91.8914939436 175.546880034 -103.737551334 -77.2276809128
200.610798708 43.5638206136 -50.8884836585 -64.3215983282
110.574573743 122.297524078 -8.18736697946 15.4771968021
220.274017064 -387.466548887 -298.628318371 -39.1371867554
-809.537277108 -219.950247801 121.588079958 -6.17732250447
850.654292723 40.1175476431 308.267272079 167.961582824
-337.87557461 903.736084748 60.5443127186 167.848331744
158.429399236 488.697911632 47.7163298515 -113.596949596
-445.930544605 -665.368791958 -108.183474273 -36.7293464969
-70.8898497641 16.8839973149 -149.866344157 -88.8768874546
-97.4202663281 181.474704593 169.36832398 -45.8062286456
85.0635365438 84.4478844003 133.804130396 90.8959934752
208.118136647 294.478396199 4.42463520957 -36.7295161903
-221.626817349 -429.486614624 29.2255697118 -210.065827546
148.216345104 -421.423622194 -404.743006358 26.537338066
66.9075760696 -118.478614163 330.046321109 72.4435211236
-67.3750151789 -343.743724675 -88.0581935006 29.4500531679
173.441078364 864.098484959 -89.7769108795 94.4742563719
124.413333082 137.892158231 59.9052704711 16.9557795379
-87.8081508372 52.7956110982 18.5074644928 -14.9200957867
-52.838346376 -680.042653522 63.3896200361 27.4069391993
-81.4437064609 532.972841292 7.04869430751 -161.021725673
-226.283371386 -343.346073459 -217.679369339 25.3673624318
-472.225087105 -398.517935885 -357.267063618 -73.0735604485
354.933180555 153.624768468 455.126877381 27.2547934213
507.957548912 181.365604851 2.92399737848 127.15230143
17.1600853398 67.8763168219 -1.79553094902 235.968001214
-101.790402149 376.055511605 -118.313071549 -4.56438176503
248.472417769 209.432791215 195.944886244 -235.023128487
-310.738263253 -672.949763456 115.222716419 60.5770239156
-127.064402927 594.152178139 2.64641975587 10.5518259383
-30.6954769976 -166.778032875 -182.406035305 -59.7594747381
211.084337649 227.60362635 -178.53542017 -74.9227307882
268.13487287 -101.881067734 16.5060201983 -78.0964868559
293.929404314 77.2190847733 -18.1937956641 -58.3162881723
-273.980964422 -349.09717833 269.089598668 -76.5352237102
-467.151998408 -218.273457105 156.669054364 232.637392802
-43.7638476884 -30.492827711 5.83916845369 96.1047583363
69.3094052517 70.441813173 -51.6260116447 -56.4185079883
-66.7242727975 102.730624586 -423.945224166 193.701685655
177.588408307 -565.639480804 889.263191515 50.5403848267
195.984092528 -575.174549129 18.7632623487 16.2228931435
-351.71165397 1315.13073949 -293.227085053 1.89033547336
-199.948221519 175.068988795 -294.193920994 -252.209382358
185.61117937 -29.8127811952 132.418538153 -38.2342641266
-166.661146502 -426.569090313 -203.038750234 -61.8626612577
517.270850198 280.019002874 319.497216314 39.7077406796
52.8096221174 118.64718688 -182.735443475 10.2887594842
48.4399673798 208.588505882 -24.5536826895 -78.4939992786
-145.809474042 -248.96100632 -60.9757479086 -107.763779043
-14.4624409792 -72.3636779712 10.2209636731 20.3360387402
46.3926196552 100.243042026 -288.488835979 94.0188189977
366.662084034 -68.6426273875 291.047908589 97.6574412458
-380.992387511 -395.093005022 116.901105756 -52.7643517543
-82.1875882161 98.9566587907 -39.8089564964 102.170187247
-167.935077247 -53.2042479664 -84.6429393602 -39.041181547
-237.865548389 -122.548856256 -50.2500030223 -74.0902058177
-146.591744601 4.26832484605 -97.8068807923 88.2429730816
50.3759307053 -76.1827198179 -263.761022602 138.919207029
-155.898480642 -233.995165234 433.267585916 -203.626902309
417.596549799 195.577992651 71.1063536171 68.8156183552
186.14841927 314.64422265 -159.808405315 -102.296521712
-96.3603871858 -29.9254692985 -163.894444711 182.426954661
92.779775194 165.343056655 10.3895329911 -32.6110959574
255.61525228 -102.968770797 75.6311473345 6.96343197383
-50.2978034516 -11.6468744358 127.800552541 -11.7856250983
345.741596263 -28.5509018119 -733.038996622 -63.6801249821
-310.862247976 118.711196723 498.35768868 -69.5362211015
-197.777267504 129.59727875 56.0099292866 122.019512662
80.8403705753 -95.2262163274 453.574312427 -82.2126566063
-234.258814186 -550.018655203 -42.1689923177 -61.4495521403
-242.963464273 266.089277619 -39.5020780999 95.3413548029
145.940647569 200.747172345 54.2146455919 98.7979251829
-56.802626934 -39.9812815673 -16.0990976462 -9.733831035
71.5880012494 10.3476036382 -192.672272117 -37.4908059631
224.100489988 164.738519571 -114.089175219 -84.964820764
-48.0961411986 34.4424007076 -94.0101072951 -100.949062966
354.972200346 -167.655224741 175.962345571 18.9763738201
-68.5208828479 77.8564701826 -89.6229965956 69.4436713997
-113.256723987 151.380299283 -112.223348619 -204.661145929
-124.279063878 8.31952062685 -203.913654896 89.6285846003
-232.196926115 -66.229379479 581.577304568 18.7747786559
109.835493577 -260.130359948 45.7188119814 47.2307108378
427.697207707 266.963356821 158.797256606 152.205358704
-70.2662212691 -538.710987249 -137.94568804 -6.17647759265
-45.4369078867 267.341476581 -99.0015219639 34.7636823557
-680.532468621 38.6240475845 -322.636297406 -53.7958967164
257.119637933 -7.36940965623 227.925088096 -60.8131891319
25.9228579837 -1.1773529792 -49.8682318003 -99.5832985536
-37.9730586829 -35.0786773107 39.7171438053 -3.8712027918
-88.0396693855 -46.3720297548 21.3075218984 115.195781088
-48.0633654076 -25.9607590875 -38.2794960758 -1.11437986352
177.580709047 81.5936840778 -133.897107961 -64.3368971259
272.251123921 189.080455369 100.150468465 83.7100014905
86.2839637784 133.658673111 -164.42387767 41.2074517933
116.984816589 -245.705024795 -60.9981035993 127.916810468
-242.766653279 178.521028508 129.433442845 62.6648925093
-121.973202321 -78.1197465408 -62.2582075643 54.204070506
-67.9943664419 -103.136450494 -301.816318383 17.8320441119
-51.1586825846 33.5893651849 261.276407347 -71.4531567092
172.354836157 -26.6431079154 -124.999075679 -48.9569923102
65.6749015801 14.371491525 -31.3159970633 -238.326086861
29.0406028927 -26.2088972414 246.245957766 -38.3141324042
7.7563531563 81.7501876789 128.52315575 -173.833296903
-32.1418446528 -55.7572680761 144.920183586 176.668614625
638.955568372 427.353511728 -33.4427600753 26.7117945119
46.4489184971 -151.871469345 330.16110105 -116.944534056
-1078.23151365 -613.249602471 -216.660128518 52.654556914
44.4220227053 65.4559648379 -42.9397281333 -4.48976381456
87.0572609391 -362.960003763 -12.4320627859 42.982967196
-38.5082371353 401.431472281 -107.534108507 40.0292076103
146.6205988 253.08299904 -75.5143176 21.8949544467
75.6645576457 -434.909923688 16.2005925858 -30.3360307257
-310.553231265 -4.26507128817 -38.6054115128 53.2816768706
101.312837922 134.460701964 33.4524266325 -59.6887057633
69.3023463368 -122.783059841 -106.336466819 139.321824409
-121.797022407 425.569184639 -77.7551641295 -18.8975498951
-217.735916157 -35.7309584207 -19.7259304137 -86.234802547
80.268570827 -20.1534807994 154.23802 -33.1510288576
467.430325468 113.837618691 232.909565301 -41.532842683
-80.8715086236 -94.4721489238 -72.4344281019 118.404261289
-16.000813319 -19.6888182838 -180.548431919 91.7996152495
343.152497907 206.862698594 21.7702491556 -37.7219001732
-118.715627888 -218.079289813 39.0864664227 -107.477963627
-215.358295312 121.387495092 29.1082702336 75.7253184449
267.035852019 198.74446136 -489.358699501 93.2028325368
168.230842991 -165.428051116 705.326110211 113.885870946
-18.8036069694 -26.6060074754 73.5424165353 -127.264878956
116.852151301 -256.728511625 -87.7886908869 -79.2207689164
-134.013057012 373.260437109 102.953750595 -40.9795470728
-374.94625975 -626.683515975 162.572468808 -25.275741043
-33.5443961612 937.624555158 75.0278294826 -117.673674259
-172.274728706 -114.754065614 -294.94244643 -7.27198305022
183.479889729 49.1599938834 187.077993733 -20.4415000794
-122.7144269 -431.735713856 -455.749363912 164.851536391
69.1364452412 188.413289464 -154.424124012 -120.837566772
-425.499175971 -123.130562999 -250.871271434 -48.6128669886
100.442243721 -190.748097434 87.1529573309 111.734526931
-1.60848006846 -245.127583894 59.11517679 14.8707253771
119.518889395 170.000120673 38.1971930467 101.261817937
21.2504023936 -78.8571085899 -21.3373555125 46.9965033532
358.290409255 84.8241094884 130.966657032 -11.1023279313
173.454018475 262.257263936 18.702117254 -93.6106008287
-20.4706741943 155.718054985 -59.5119664184 -110.547601355
441.000567755 -87.6833479719 -265.144224093 -12.4763429831
-1189.06470896 -312.384025862 -304.620689977 -27.9652791707
211.158169781 -168.005349036 608.157047243 145.883158432
-105.789323158 -19.3901822089 -231.059899307 1.50371165506
262.762649604 82.5017219246 286.203473623 50.1786261375
85.0896444414 -43.405100891 83.9748408325 88.5380946037
69.1851088895 84.1655839838 102.157280499 115.600780223
48.7322788774 114.06837221 72.3086153587 64.5595168988
3.84882654586 121.30988671 -143.292733332 -125.43326224
318.11911957 247.375845605 -304.450881089 -25.0916124883
276.565782308 -980.350786461 369.35169088 -42.9216700749
-437.035998803 294.411613984 -167.078920952 -89.6814116069
-154.923474402 348.7606486 269.386901391 -46.0080737655
18.9307017235 -586.359614478 -221.177977362 -14.3774559806
-336.336615444 419.981541278 54.1245101872 -166.311070388
-393.024055134 47.9220060574 -108.517387881 261.217491109
239.237161607 492.957244464 85.9124310301 -54.0745261484
-99.596989285 -115.102759374 61.7835843791 28.3494899465
326.248751647 -69.3419206925 -67.453275229 74.5580325245
-17.851706276 158.745075552 -162.322560357 55.7047788699
398.075646318 80.3565152723 68.8479215161 -135.972210668
62.7577433698 -3.77951446439 68.2742645847 -27.9789967837
12.8906993239 -480.110002766 -269.728393248 131.35192863
246.453233928 158.953343291 286.553733393 -27.6572279462
-293.435434198 -50.2991925148 218.46374096 -101.271438711
-163.028709919 -115.590692063 -160.495510997 -153.113840715
-87.9970150411 214.589166576 204.757254633 -238.331575687
-21.178972375 28.7549354713 -102.053158997 146.098389302
-35.3813144642 -3.2114177887 -138.368792773 -15.8718405963
-139.602935751 107.067018443 -122.697360623 120.460849182
179.640020421 14.4774136326 24.3503903465 68.8321431128
213.452839778 18.0763709715 -40.4189109929 14.5529178445
-9.71000200394 -96.5527068123 372.611439022 -3.04374227641
-345.59445154 -471.580354447 -73.0368544525 23.6555768311
324.403054668 406.231477475 50.80067334 -25.0223039206
-145.879132442 -515.256745079 -655.443398072 151.947795636
-152.514338634 340.252178777 231.188688766 20.3590304144
-40.8003433538 -905.027806329 -184.541166622 46.0893825139
352.599473436 1565.04992719 650.478493493 -12.0548067962
-256.444803814 136.221099364 -173.139659355 -58.1930333896
70.1344278036 -236.300947414 7.22713349526 -66.7302905557
-24.0817071096 77.3578369966 133.155895501 -68.9876802637
-132.047873069 -191.26610479 -68.9342515517 -93.1810325264
-148.901162502 -121.235150273 -115.313677445 97.6701030808
208.229249794 -82.6526916351 -1.7731489223 25.7775290248
65.9640557018 -170.760440099 -9.37854582501 -36.5673742631
-76.5435031522 -256.806166598 -123.626239444 39.1285967348
26.5614757355 5.01214628789 -247.489023414 36.5071961973
438.36633472 497.375345553 -123.446171556 -92.6275985291
-324.846519445 -102.40994275 512.736756005 -114.328321262
444.795506557 68.1027999706 214.911544455 163.149106116
-154.382455459 64.9215422801 -79.1558061967 224.109723331
-229.848289307 -169.776248452 -116.00811149 -2.12502385356
-65.3513199422 18.6794955053 26.4152686583 -73.9145627058
-458.031713508 -881.542813123 -302.666988809 51.907069464
51.2702595369 838.196463896 326.7415111 42.9110059245
201.15586329 -363.926182432 -189.304020324 -108.832419393
209.504384525 543.592035505 -449.612589069 -37.3440875746
36.3592520439 195.643450154 195.229775128 -109.14434918
304.376986221 118.691431978 -280.214621518 -52.4963971992
-34.8512591053 -108.723133658 300.520759425 -50.5101570879
-183.085519156 -378.635164871 150.358902857 -132.868944833
-311.42937034 -299.644630561 -13.2864242775 -89.6759569708
-186.656010733 -304.60272734 51.1312211249 71.5848967985
88.6774864276 28.5620173715 36.8378640913 108.822299714
129.317382967 -207.884540012 136.176408437 125.440692629
-27.193948525 80.1928084849 -99.0709634169 6.6377048565
81.7131270845 188.107439813 -2.1052624618 190.880233764
111.283272405 163.032081557 28.3303535163 -33.7359497727
145.564420222 207.380770203 -32.9609924287 -33.2522899169
88.0210327543 112.539301203 27.2472089074 -52.116691057
-186.563547331 -413.667260745 -102.578526044 106.90970184
104.321662174 396.377175329 102.061831598 21.1621915503
-216.40504812 27.3894727528 -85.3913809324 -132.609802193
-65.8139709148 -69.059575192 -234.053205388 -55.7323742947
-211.210504408 17.3451622624 472.667083217 -132.298298565
358.972829665 183.09274831 -83.8190412004 105.394055114
129.720595673 27.5984524955 208.241432084 -82.660720144
34.1178348218 -10.2454132229 78.3089378568 8.26295965215
-316.023030623 -265.18506783 -286.182238411 87.2828550954
-114.398112008 -138.299983247 -67.469012828 10.3392531019
200.936228185 -26.2516851685 106.663998016 102.679633785
51.4964463757 -355.918149754 52.558816331 52.2986302023
491.364835376 418.501397264 -153.412144345 58.1394654859
-182.577205213 -146.525107655 -734.209152543 -142.785749881
-658.436784593 639.019546545 815.983606231 -150.788846661
271.251300946 -43.6758937145 288.373903237 -104.659992589
-405.817608782 -452.929549106 -149.409167568 140.784327196
213.697799315 -112.454497344 -4.4434422423 -8.70372377583
-21.3011759176 63.3360218502 -26.6855302627 87.3036136043
65.5423780046 165.396737136 -35.778648539 64.8713616661
502.766677441 324.606698019 -31.5941603919 10.8306452118
-51.4725387871 -83.4686137913 -192.829449171 22.977423597
-88.6123329135 -130.308059173 -454.183222121 7.96849008247
139.575016362 251.834026842 511.609994527 20.8434819487
-136.16211835 -76.3287418089 -95.400235167 189.442492795
-189.011331394 -325.994001074 -4.74715097239 -141.696717164
29.0875707447 65.6752906887 66.3018732762 -10.1156670448
-130.395925398 -275.495206009 -121.897063247 -202.559033552
325.827819521 474.138796504 242.278987448 31.6664028475
-59.6156986392 56.7361474606 19.8606437074 -95.0095393809
-253.410612021 -237.10005196 -176.358307693 63.8243638036
42.5369238051 -64.5579304897 -58.2417531953 19.1476196961
-92.2677363491 -39.9344961837 -249.00243994 -86.1584439803
-168.542839577 -345.642448293 -76.7460754095 -31.6009332257
151.150091385 688.931018958 88.8162594587 28.6211748018
-381.51627445 218.937337765 227.719052914 49.7186663486
-13.2136289903 -357.772637787 164.047526403 74.4762656679
246.934565137 19.9666168151 -5.47215472722 -12.5471206818
214.193958606 111.715682148 -472.012147003 -161.595451754
-2.23476960667 -27.3377503245 618.037092673 243.361504938
526.613041804 -91.2064929031 101.730394596 -128.017694688
83.5312473692 -12.1838224482 43.8464877881 -243.799339063
-10.5637464675 -457.56255167 -107.90041582 39.8635980231
28.0019212479 473.210158553 -83.7156445245 350.438989469
-357.405695322 -165.676260984 3.04811073631 66.480858226
17.5685770028 13.856377253 10.8333701288 -79.8806683602
-141.495344113 -146.569082991 -163.092385013 -82.8959605764
-43.1317969526 105.907437309 -96.5499613701 45.0251864106
110.19820404 -2.56721719035 -146.668666924 -41.0879161697
89.2898833439 137.798635363 -162.137103375 81.7447011984
90.9401082722 231.504151663 -343.573145485 -40.3447633546
-136.576863817 -93.5660283105 652.532093546 -212.142133391
-353.901884575 -341.060199597 207.668108648 154.831360763
280.772927632 216.198264808 268.196349567 -43.074899168
-119.468009857 123.000768725 -180.086492471 -85.8787074302
