-37.5984030591 -19.6479699111 -14.9667538412 -33.6390880249
42.9793905234 31.4242346939 -32.9290003444 -119.90440199
53.0082634853 47.2009095855 -6.6755855318 354.445989077
-130.205498571 -94.7912786903 -111.855942931 -342.500767002
-106.593705503 -65.9587677154 56.6328491606 219.46065453
58.2787912329 68.4572933541 131.560625728 -8.53147814978
41.0479383107 46.1341386511 65.8360422938 -78.0669861448
-0.835735018455 17.7169327146 -27.82486364 -96.1325813438
3.06563361967 1.82028329148 -14.9910549501 -219.333443985
-24.2009826464 -38.1324057753 -54.0646400029 135.216402702
10.319305839 -11.2947536269 24.23908539 259.397032408
17.1948594673 19.0055995877 -15.5099080845 -139.013838429
15.1650104996 10.4172638968 18.0643953349 -94.2258574611
-30.8435234134 -16.5282343505 -57.4107461284 47.9516594282
22.9648420811 23.031508676 6.91709421327 -97.6381680203
-2.03957456446 4.66717460772 -44.0124205009 26.122897923
3.9580412078 14.1205985625 19.7539525602 118.611800739
25.2451660988 19.1717435582 109.556731684 154.123413562
9.2439472981 11.5735973261 27.1273835587 -276.702294067
148.396504152 59.0082137976 1.3384162711 -388.642943353
-141.384393096 -58.056650011 -34.0847581715 281.878648645
20.0315201525 -26.9739995291 -25.3575142095 462.891277213
10.2364098172 21.8596833615 60.4236749484 203.905152809
22.7168487699 15.5983369368 5.90047264698 -0.402498952471
98.9888302297 -11.1867242048 61.2660986191 -104.881378753
-95.1392718625 -37.7860267947 -74.7441222678 -297.293114794
-20.415911022 14.4329762043 -39.0463558184 259.638346625
-10.649996489 -9.74437856848 17.8028939022 -265.195757312
3.90212988285 32.5235674326 14.0631626964 -112.609345305
8.1285862948 13.6871519091 -21.8586364291 78.8891705014
61.8801686225 -0.203913327274 -3.62412813461 -8.7100364192
-143.00562309 -18.9009147959 -53.6690455142 -120.637570972
-64.0063666515 -75.4097331748 -14.6015511659 158.266805267
-26.2010100236 -30.227511081 -67.6210404609 -115.838451506
32.7568202018 1.03021426255 6.99400974815 -0.081966604163
56.1316224315 26.8882090556 54.5434631021 104.580007358
41.9509096826 13.5223464109 15.3467671241 46.8061292814
45.5960685098 39.4806930086 16.7546114054 -88.2332847116
64.3391042977 48.0556065612 52.0034321001 131.836753176
7.78921218251 -5.82710161497 3.53617045233 -240.290006665
-99.4608429002 -41.1231378649 -80.061733243 16.3105705442
91.0683376875 -8.39897833324 60.2422740387 232.666253304
-56.3637885542 -8.81987407019 -33.3006140841 -11.3200347149
57.5081886679 14.2789117708 -7.89965566339 -219.175854555
-4.27092003588 4.83740547497 7.71366929695 -140.272243672
-69.2092944874 -52.8498519306 -13.5079578999 490.713569174
-2.61319264999 12.8352341458 80.885093287 -62.6174344093
26.5556664841 56.0467486178 27.724938838 -38.2974273358
2.32935663119 8.80268934115 8.77995746016 -302.612719495
-20.8792268811 23.1450106753 -45.6155155756 306.813638282
-20.7100515129 -26.2612037453 21.3430164764 -63.2565944064
42.4270097154 78.9836507726 46.9841700529 54.942798243
-1.30174975108 -20.923807706 13.8830606313 156.731210678
-61.8357175494 -80.2189318794 -90.7813472671 -139.775663541
-68.211001298 -30.8666754442 -78.4092861549 15.9498588541
25.5491553699 25.2345689163 -21.6476611469 -213.096923002
16.9417337145 20.0876319297 -21.6764325109 299.251603137
-33.9562019674 -19.9349988984 -9.12132314204 -69.2213165454
23.8764058067 17.6080901093 25.3580221829 -95.094851793
-9.90410723199 0.94714327683 42.8952537264 -52.0019643763
-67.4764490589 -22.7189565949 -45.9631595491 -417.347855481
31.3169716833 10.7658767431 55.2355443655 220.640536366
-3.91486622336 16.1063112544 -96.9718300041 193.412189148
76.6713144986 15.5998018339 4.62863004739 -5.67496576124
16.276121764 -4.99171551626 29.9719615725 -47.7392126381
-11.6493971507 -7.07780811535 -7.15728904677 -10.1397187305
-29.6030649255 -15.2983543563 15.5274557099 -218.976102344
4.69502535979 -9.89682762678 41.7824371688 247.50155495
-12.1186669638 -3.07086958823 -7.82459651237 -78.1543575737
77.6267939294 37.7992379917 39.6547662127 -65.3926085181
87.2479008015 34.5934598881 39.2544381883 157.28642331
-108.316313893 -95.0741100184 -23.3680142673 -27.3127663871
-42.8185662825 -0.564365272774 -34.4326718189 -102.190995231
99.4415725676 6.11816265527 37.3226800679 386.18550999
-91.9305399673 20.3898803389 31.578722094 -70.2410824742
138.54496503 -8.34157936503 13.3134910451 116.444938688
22.0607860302 9.4962405968 -8.16451379092 -62.3022034379
-77.3905130199 -2.12121657711 -37.2827744259 -190.856730679
-30.5344343846 -39.9082476335 29.8644582992 -487.495622916
22.8574669281 29.8887088298 17.4295971489 286.904062266
-42.6964742312 32.2368286387 -78.8100879664 -20.2525201702
-19.0493414457 11.0071361724 -19.9773064224 97.9031113277
-22.808519725 -0.162394666887 -9.62426975094 26.0471094121
-29.9427980045 -22.6255351714 -36.1420476323 180.69478236
-30.3611260958 -35.9702432093 48.5022501726 69.3591970988
-3.54559205656 -12.5216815974 22.4141637881 -11.0221607996
43.2169576148 27.9182977642 14.4368083615 -64.1034827356
79.0598798873 -20.1699035344 42.8075013175 266.996937387
43.7307806608 6.28408448498 -32.2700045899 -381.693629053
-46.1748542789 8.72464547804 -4.91564635666 -188.392672872
24.3994542336 -17.8290405487 45.944002263 -6.07871601721
-17.2171626945 21.51431753 -46.3360218241 -80.9072681354
-27.9633630386 -26.0143231838 -23.4641003476 136.005108291
-64.0258684814 4.22006629897 2.29296887106 49.3283656586
-29.1370408652 -32.5739915529 -30.3777714953 -129.56655136
14.4002328033 55.0864934336 -0.945192607238 396.313484529
-8.8118748999 -5.86474740423 12.3837350018 -90.6900073124
16.682389442 -1.84497121926 -12.3014198684 -266.12989132
48.5875529454 5.88074895742 64.4992063719 253.782215262
-100.594164365 -45.6839186026 -87.6784057622 -55.48784649
61.1024968106 48.714655022 40.9021887433 274.128722707
1.79156351413 19.0812697594 -2.15297173949 68.1806507024
99.9060535243 -11.011467851 20.0817043085 -115.803828642
-9.81813385843 -16.2205804367 12.41241788 -289.419408712
16.5042147791 -2.66567846771 -11.5038748965 -221.073361969
59.4184396563 19.7421609214 52.9375135053 233.485981639
35.568668916 34.8432358921 23.3158893095 181.110469279
-39.0960574818 -4.48145727838 -80.5588820747 -336.33148543
-9.00426363157 9.64454841045 -3.84245505055 335.684727478
5.66285732841 8.61982991675 26.9105965788 -327.072882503
-30.5736962679 6.8313368074 -45.6882770927 -175.221450822
-42.3505500007 -6.24735703326 1.73601708076 170.576502506
-53.8468828828 -14.871311393 -46.5075695323 185.380909642
-46.8903203815 -13.8288263986 -9.7513176233 -206.848702829
-11.8252006199 -17.7943154603 -4.20668983943 -37.0666809357
17.643677409 19.3329935193 18.7596506535 273.679273344
-56.923711671 -44.9301235431 -3.28023069497 141.404277953
48.6334451984 48.0984578226 82.2422377558 -105.410385439
-17.0346928815 -43.1978238398 -68.0724985626 -53.4571669208
72.2500928263 31.8567491463 44.6475065543 -35.152165848
-83.6487386597 -62.9480982437 -78.6715545676 -102.584488785
49.8044134649 18.5928177072 21.0850604831 -57.3742159576
30.2993387982 23.3629631239 14.3161244591 142.349470342
55.8539064362 46.2040771603 10.2250645797 195.090365188
42.1164390013 13.6497956129 1.89391202651 -70.4407002221
-127.002109126 -80.2244649299 -103.95997868 -13.7894106093
-10.4186070284 7.05189099778 21.3709954832 -114.213971754
74.0539003209 44.1844260521 74.9637005786 123.048540948
-2.05928528371 -12.649885535 33.3136271234 117.361195668
-21.5341830018 -14.9841658729 -4.75981537021 -314.039275377
-14.8432655937 -31.0381138946 44.3853740369 100.051205408
18.6806482298 -3.97650460402 47.1092754082 206.889723436
-65.3489236004 -37.821413523 -26.5291495766 -72.4288642157
-0.211983253588 37.1690908718 37.3570401541 -143.859566538
4.9128697207 -27.1466733042 -26.5519113052 -96.7324162461
10.1338271696 13.723157756 -11.1908219272 177.567226678
105.535363103 82.89547172 52.4319001848 487.997435848
-3.54678929538 -20.4566066842 8.72821893447 -24.6686982611
66.2952066436 23.0101229655 7.92197938476 -298.646289791
-15.3069444567 -35.234455607 -84.3214659076 -158.468665814
-84.4392699006 -39.6594420732 -77.0615993935 -147.158684378
-10.7504663195 -6.92201370211 18.3122302426 -564.54849836
-0.63632820506 28.8543954604 11.6541478154 635.089707899
-14.9308647183 3.65781779238 3.88777870155 -110.899100188
-42.9072780756 8.9777243944 -17.2153261725 -99.2927183511
-30.3781684636 -3.52688589732 -77.4899290941 -38.5584141739
-0.392367534402 -8.57536862086 70.3104113687 -10.3779246778
78.6125604439 28.2913579575 42.7705770366 306.128938623
-32.6591554569 -19.6728730565 -93.6907619042 -218.933355508
106.72257828 91.9296604188 41.3500186847 149.698609775
43.696057209 -5.54593616123 -4.64415064038 96.1170911436
-16.3648740847 -69.1908236786 35.9174179345 32.3568203495
-107.337841502 -56.7245845329 -24.6237371633 -58.2013929364
62.0236791422 -0.60844491615 23.3233862943 -111.907511447
-46.1699623853 -26.6379058342 -18.914172576 -134.003797787
-27.1655400121 13.2434546065 45.2444767642 219.663193216
-47.9128098828 -14.7675091513 -68.0458700001 -168.768606865
15.4553360011 17.0033183239 -35.3365456475 151.223974817
20.211442213 15.8732392489 49.7079488704 195.098499129
-24.7395736188 29.0300894418 0.323623829265 178.116434438
21.791348455 30.6379977466 33.9257702758 -139.982606565
18.4536112451 2.03596580763 123.200923591 -213.282777931
22.8352746604 29.3837860781 53.8658751805 -75.9350385588
32.7265191836 -16.3734023566 -3.97109442346 189.687953247
55.2700909866 43.6842754744 31.9156876911 -345.675550777
0.119226325206 -7.34069076088 -47.2535368821 333.808063821
-67.7667780129 -53.130640306 -85.2156137 23.2257509001
25.9307029636 -6.22098684857 -46.9100564823 -193.744442868
45.798444587 25.8329298014 23.9637142125 164.043065928
-42.9799687462 -7.53185467139 -103.327951682 -135.214887841
-54.9660538847 -47.7606294542 -68.811957834 -38.6431796776
15.631202031 2.68088449142 -11.4238686938 80.3611611285
-39.1909770296 -12.1863732411 -16.9085957287 -233.21486593
22.8903079066 -28.3084092079 38.851567866 51.6450233744
-25.3654795254 29.5312778926 53.7181971601 -251.986178382
100.414495928 11.5364762477 21.3965066535 89.9179428689
-167.625514385 -22.5362962276 -11.3938459714 134.238563308
5.49590382539 -12.8648923226 -16.5029357366 -192.558422807
31.3063907094 20.20919071 14.4177543661 -401.117478563
-11.8216981422 14.3227556253 39.0225660055 869.11262841
23.758046988 26.7146527881 35.9639471086 -0.262507433238
43.7111642627 63.6132985603 -23.3743096625 137.738117801
-39.8217767147 -53.8429753597 22.7564627175 10.7387471172
-27.01269023 -25.4361887889 -69.0231771438 -154.638271633
45.2359654073 36.5899038154 15.9856449125 111.751708166
87.4280803046 59.8974980354 20.1164555025 32.864910168
14.8425730742 24.2214369403 29.538813479 -19.2286165003
-94.4393219067 -58.1016014066 -82.8520591978 -89.6534495484
-33.968135159 -70.8858864742 19.6430283354 -118.924209318
-13.9125880189 -18.8436534902 6.05881347309 3.51650587826
34.5669930316 3.23447288287 105.813052957 -124.239711962
-14.4988471266 -34.8884563297 4.56923214902 -91.5022025189
31.055769821 23.8691531076 -3.59891399738 -30.4682379547
-16.1242309224 9.40466778085 22.4214055506 -37.035233881
-65.6200092517 -21.8739585273 -69.5077082128 -109.295512456
27.8257377076 25.5056328328 4.50475991016 369.36098265
26.9882645114 20.508603933 -57.5973624625 311.747097377
-7.94446407675 39.7693985614 46.623717918 -47.6471254541
26.4734441313 -38.2597479345 44.7474280779 -131.48399143
15.7588292054 -19.1910322658 -10.9273558727 -37.9891904887
-7.49309189664 17.3519253018 -21.0826229873 133.59001339
-46.0843888652 -43.2977263203 -44.8423078959 69.6939923782
41.7730205506 11.3095403356 25.0870361614 -59.3964726856
35.9620278009 25.6349410296 16.6379685129 -410.41238786
44.8105248194 18.9735263553 -63.7667708463 -4.51921944953
-35.2104832555 -13.9623524559 -24.9375961747 -124.313434182
10.1458896048 19.7428219953 -31.4450079399 107.307097311
-38.4905951573 -0.0385571658716 4.32029284633 53.4237685924
55.1677338642 72.9691869336 37.1967041251 240.517895894
41.9161788138 -3.56265452699 42.4787890945 353.963321287
-45.1952358701 -23.03501062 -34.6461988718 -65.6655498259
80.2907149185 44.2465960172 52.5557164741 23.4879857251
37.8152497257 -13.8051387257 57.1051536386 -61.7742474565
-24.8549237702 -20.942941722 6.6813334394 -212.629398622
-145.061532154 -71.5979158255 -78.4253630124 -365.840905206
-2.40134278868 7.41458203748 41.6180963197 -158.573612891
-49.9418018391 -37.3046604655 -42.2181805109 -40.9353011558
-2.24252124077 24.4847999971 14.345862603 219.388437356
30.9447864205 11.8455681378 54.002104804 246.769484155
-90.1298405833 -73.9759598853 -37.9467492409 16.3411256458
9.54804046966 31.8953111243 13.030745661 79.118325191
6.98843811539 15.2945773751 -19.1295771768 4.65577404251
52.3022184577 23.1950863987 23.6420111467 152.554166298
76.5260331459 44.708998164 41.8635507991 89.0435521017
-86.5247868614 -18.3131647244 -17.0433722504 -249.431054823
6.59694358586 1.60507860587 -11.9772421454 -30.7949812316
-8.73684909499 6.77351347348 23.9595091522 -55.2383048516
5.39437976532 2.21537851952 -29.5592686388 -197.636483459
2.23387400113 -12.8765821898 -76.0404139907 96.5151266336
27.9230827383 20.2944771092 -1.75763302488 -67.7550725454
75.8660596733 -4.70535737313 -59.4932115763 168.875210137
-47.512912458 -43.1878199974 -33.1476140918 56.600538335
58.6818899939 22.8442726174 68.7415145544 93.3282474333
24.4458614308 -7.26991926706 18.2923454823 -139.455876561
34.7241444595 -0.724858484954 -20.3394601834 246.634905468
-38.5883922471 -17.4324122064 -43.7437702351 -154.642569888
-21.1802743692 -39.1952774164 8.271795628 34.2766397811
7.09070911202 9.44926481197 -4.58519040242 -131.363054584
8.55450565756 4.86458289983 74.823069317 -146.618877475
12.7473157156 43.2380946574 28.9449936766 104.395388095
-17.2756713398 0.877685372623 -30.6716208485 -86.6378405128
25.7332905627 20.0577862028 14.0654056251 21.4048857458
-14.7530495389 0.561018238061 53.4523513291 -203.023541297
-5.9592498656 -6.52228039052 -5.2036075253 4.21783932704
-76.7208997333 -29.3659846149 -25.2437613397 -104.932174404
-34.1840395585 -27.7148553726 22.3444824408 130.358312237
-44.2697530501 -10.6103481563 -28.9121128449 240.298252374
-3.92909826035 -2.57925124389 -11.3538125866 -42.4137997238
-16.6012232235 -17.8083054316 -17.4266320462 -61.9194182012
76.4721815398 20.3390747321 30.6516822378 -247.187629171
-51.692286089 -12.8983665723 -29.1680650101 552.170120188
-73.3925446998 -41.0869816763 -37.7604469053 -124.193376527
71.6970945689 39.3630598257 60.7568782343 -115.309101591
71.5771833286 51.3486685503 36.8117560543 73.3788528872
-19.3465313444 1.62726501971 -31.0957464984 -34.1292873229
-40.1100677284 -22.1155101778 -25.0120738726 125.858955626
26.1230644677 -9.70101749198 16.75876001 116.079659836
-64.6634648381 -41.6987989812 -22.1649027399 -371.017249345
6.53470779369 15.5552239512 -47.9965282273 203.86742195
-39.274004819 -20.4763936738 -30.0597841167 -231.567435278
43.3742270409 40.7431933062 31.4279692645 57.1367804849
16.6479038217 19.9166263259 45.7426690204 213.974541482
43.1938511121 27.0155431264 47.5465391255 192.452608274
1.98460940796 36.3924514116 -16.4443449024 -184.024595798
62.6827973717 25.2844953768 24.5541832238 14.8667819464
-32.1434441574 -80.8457327056 -26.4758473677 140.386196559
69.5021993432 39.1054032642 119.615050234 159.553686186
52.7283239691 -16.9999702421 -45.7128048827 -366.932272268
-70.5367301333 -8.08785189928 -39.5353840642 -228.851535401
35.0392234864 28.319819037 29.4408407403 152.218813933
23.6660474274 4.76972473408 15.9912941296 -229.193643254
18.9646771572 -12.4258008488 -22.3316459188 29.6716433257
-15.385489372 -19.7692720181 -32.5132738503 199.974499507
-98.7335795957 -11.7741537962 -55.4791347505 -42.5731008094
-58.3719937225 -21.2894673478 -16.2711702479 -103.334130111
72.9884729197 107.297290476 9.85742983452 247.947697409
-18.8553376356 -40.5736757966 -10.1975965767 11.4525838844
-36.7423055009 33.8492911849 18.3053468342 -140.353172938
2.23985346194 -21.2588778385 69.7085163053 170.464521223
-48.3545939191 -47.9539704564 38.3870344096 94.6503636119
-60.3911353663 -37.2451390817 -66.8378913826 -39.5294750427
17.4355593337 17.8850769286 17.1732982613 -253.097410113
22.018673252 11.4191906583 32.0239895775 -185.974340334
49.2899358407 8.16248469112 54.6005284963 252.179057267
-18.4922547238 3.9172645257 -21.1063009152 28.4160796094
6.46570504463 4.52723141482 15.1840167 0.0742648189895
46.7523149036 -15.1433527806 -48.7922896183 -225.582217523
59.7010378354 27.8540567123 -49.0529125597 608.941618463
-47.7370475073 -36.8808673464 -63.2014218733 -204.616887622
15.5015451728 18.7647572681 -11.3433667036 -72.8773846579
39.6412270184 41.1863735936 37.8899454024 -9.59926618472
5.36611990593 2.71807775625 -31.1763278639 -143.311071297
23.460090812 -1.57169428185 17.3754234954 -28.8629368043
39.1908545712 -17.8729432167 127.608375246 80.8209519796
-87.6209969538 -7.23693674285 -26.5311491871 -160.84996853
-78.3995347954 -35.2141139666 -82.7040335656 -161.1228086
62.4142092551 7.07661433532 -61.8037564737 83.5930176903
-11.551983135 31.6487730328 -1.20803477922 9.2773130039
28.7584974111 -60.9140688645 45.2597013139 89.0084012573
44.2564346512 10.3752852314 21.2171990709 -107.527498683
-137.592530715 -80.2608188931 21.4286597094 125.91607492
24.8443178902 21.5571678634 41.5305005888 137.283292259
-33.6618677827 -10.4817157865 -54.327752784 -9.01993394087
-48.0915609644 -15.9689865772 -45.4345036846 -148.06080623
146.414532583 107.994841346 66.6286059026 27.7368273182
-11.1027085696 17.8103263624 -17.5125111722 317.271520527
-56.4571321346 -35.8460421744 -87.2082089798 -12.7663729833
-48.3193017501 -19.0939018398 41.7075437567 -43.4972048981
11.4490317017 18.9491469945 16.0356278456 -430.464866188
29.4347953143 16.9097580327 57.4950582127 11.4934586498
28.0712553402 5.89758704772 6.83652914377 371.270760408
-30.4011628899 -7.90739983253 -38.7442682929 -21.711849488
-6.48755763614 1.37180055412 31.8282152311 -206.167483241
37.7450088444 21.9183376855 49.8962567329 -363.191900149
-71.3758864916 -36.907063155 -19.4377087051 49.1855619605
5.82633754915 -21.1822450712 -9.18559766982 438.953000612
-35.5673537577 23.9827736727 -115.066090365 341.379470502
49.2886355206 22.7942910961 -33.8098264067 -296.777078196
61.8330641766 42.7676004051 59.5615753061 111.90621969
76.4141807539 49.7894986757 52.5978046126 169.230430842
-48.6721966904 -18.5541266015 -111.027510178 -123.36053131
-38.6824545875 -40.5733824489 74.8145835662 -128.434299336
35.6957847035 3.29026955208 70.6627557732 37.2813108476
39.3438021451 15.7711395389 -3.29862546987 86.6597393344
-13.8738194917 -11.2647999293 -31.3374936688 -133.07390195
-43.5379136362 -29.2598834091 -5.86628912932 -437.304992132
-19.2669595296 -25.570107448 -4.53630921032 444.882049629
11.644329999 -1.36621655117 52.9099845964 -175.11083925
6.42960598845 -0.348431872932 24.6327663283 11.4459178777
-52.1850402157 -39.6204666885 -75.9766964968 129.074215678
17.7200503828 0.00563224567489 -15.41936752 64.31826411
52.5189753657 21.4765747597 -2.27937094013 -124.408333818
-9.76889139457 -18.1660157819 -41.5064923816 -29.5313540119
45.4601275475 95.0249301594 -8.57582904153 11.2676535829
-2.72431467684 2.89062471128 -26.4261912359 -248.231178643
-22.4576102669 -1.6192681595 19.5363414363 146.327378991
-82.0134171705 -59.1905511377 83.120404017 -110.871461017
1.65626508964 -27.847635994 14.7619482484 -16.3921896714
-16.2915185827 5.01758512791 -5.45446427225 166.441540538
18.3789645174 5.09619861367 -33.9695152794 146.352413391
16.8498276909 -9.33081630569 1.81574945731 18.6339415856
-16.4625870884 -2.92107578024 0.722325966208 -125.27137168
4.71786290184 4.8978371889 14.8854393106 195.047960823
8.23787070376 37.0060620269 -46.7558605167 13.4400026044
183.24263041 69.4411445943 109.032720673 -37.6455492673
22.1260691236 56.7879219503 47.3510445298 18.4575196434
-68.0636618978 -61.6348379273 -52.361348428 151.364762811
-56.4025315441 -38.1374938104 -90.2945481439 -306.830204877
-20.4335658138 -17.413767824 -18.258428615 58.3169098378
15.9313294812 3.98530368429 81.9203976058 42.5629628648
-92.1182759975 -50.7593906923 3.63503240891 72.9342328877
-8.04414584188 13.9351199866 -0.846644942573 -202.078053718
20.0515745229 -6.21757221094 -22.7262446532 -61.013218129
-58.6808405368 -5.09166499497 -25.0977420807 -1.82992540447
13.7533805241 29.233270411 -13.2098388792 -304.668678549
77.4680667117 25.7744479224 65.9446070323 424.993223802
-19.4382009174 3.71989507328 -29.9925839217 -171.035805075
-10.4009519501 8.86551499399 21.3096610009 -93.2100077137
-31.6542616107 -21.7151535645 16.926408295 256.131207438
39.8733878243 51.4783711995 -31.910523942 134.406719408
83.8272510811 5.9278827983 -13.5272851932 -162.084502443
-42.7135510367 -21.1191113257 -15.8998353533 168.668206891
-24.2608325687 -2.37595649454 17.2428554119 102.639526599
7.67352923552 11.382881746 82.2974300538 72.893545041
31.5596652417 -54.498169323 96.5766697733 -323.36206246
-106.149188163 -109.535564757 -204.320124103 -444.204316579
-35.6031854118 16.7543252466 -19.1824105097 149.722547013
53.3964357181 27.5178216233 -28.9034697063 46.7222605876
8.86428433062 -19.192285373 25.09227348 302.48993613
36.1337900881 48.3129936835 -8.80592172226 -101.36044017
20.5480703427 53.9416039676 -12.2400589254 -93.6037164983
-31.5670494077 -56.4541049815 -10.751381785 141.678697362
35.895894893 23.4935672874 -2.3500587315 -211.721540899
59.4006721515 35.4341923362 55.2246867204 425.116065002
25.8454084821 -17.8468314307 85.6964857274 -4.80652764246
8.74886120205 8.38417216364 52.4478303647 -273.09240581
-33.8953147405 -0.31795943342 -68.4456770599 30.870426117
-69.1845897878 -12.4331540053 -103.828557213 -202.813684279
1.61698237622 19.7394895581 4.70473393754 497.325992769
11.9272385874 20.7482842068 -1.22465289928 -73.8965738285
155.724009211 98.7847993882 135.678752058 55.3688433131
-123.119599341 -69.0124627579 -158.661842086 -193.570343395
-118.882569807 -83.7415043345 -52.1741927885 -149.932028086
-2.303015895 -31.3848122685 -31.5263305941 77.6348632298
-26.7081616037 -10.6931601857 32.0443108878 -88.2236364508
-57.6110514379 -46.1917221101 31.5012144341 -152.969688958
0.107961071337 5.07124349578 57.2762020493 -233.503760249
28.9950533822 55.1167991304 18.6607040525 309.09791284
40.8282008085 21.6092523572 11.0706147835 181.16019875
14.0683554239 -9.40571001445 60.7026022582 238.334263935
42.6945152606 29.8831994556 11.6100852827 -330.976556181
-20.5289019772 -26.6820362621 11.5993706966 387.624936973
49.364141793 11.0336420976 73.0115397346 -55.1665551671
-19.3451383757 40.3514024333 2.45170944996 0.777100531058
140.88082313 3.26367481333 -41.1107798848 8.60378231973
-175.533850071 -45.1723249641 -180.524891614 -118.663923029
26.3420073744 33.5540705564 30.8160695339 -135.192817096
34.6156514475 24.6290343878 18.8546425238 -212.742277058
-34.2012380622 -43.6145439163 -15.538684374 -1.01734946146
10.9328089649 5.2408775864 1.86421242192 59.2969939951
-19.0788833993 -21.1572045502 7.05416563713 -87.6991592238
-6.59353237004 1.40695264381 -30.1088854827 70.8901830776
60.8155519563 18.7938191999 70.2046090172 170.86103763
43.1032150314 18.6232296541 85.7816450987 -105.127989568
-152.983734677 -77.7731155132 -128.013557929 119.659210254
-0.848984547625 7.4554105258 -83.9321985845 -31.8732304811
-7.22832690009 -2.87103736465 -59.7822124859 -73.6365375921
101.467142826 58.4876368104 61.6734899439 -20.6643788598
116.587307741 4.99395455836 96.453076654 348.189608569
-29.7912422595 -10.1159627603 -8.92730340709 -26.4324768083
-79.347936835 -78.4685390964 18.7796267491 -265.200001143
44.9155612921 26.5791399468 106.08959793 -173.396265251
5.54366827344 27.8558755807 -7.23550018059 510.027127209
-45.5443837862 -18.0399724054 -78.7009702296 -113.728377888
3.76170358489 43.6073924426 18.6800942807 -153.257954183
-5.59164482983 6.2855606344 -1.07663673164 191.626333625
-44.762834965 -4.62128706826 -2.618062986 106.481980942
-33.2745083194 -8.53710146036 -57.3329709113 -19.3193723004
-31.2111546931 21.7993029703 4.46995106173 -95.608494492
135.853145006 70.2525491281 41.010387467 -56.3986161412
51.881189619 42.0761761081 54.1548282964 163.042900207
15.9845642566 6.53390674826 -55.5494064485 22.2974390147
-77.7216353685 -96.6480542366 -53.229187388 -218.05033932
3.51294432289 -44.8489654357 54.0624642625 -46.9285944973
-54.4399955825 -71.9374900349 -43.0851499682 -405.287064184
-16.3086604606 -10.4999297108 -11.7207151125 190.793013469
3.55062108507 13.7277205745 0.727022341262 147.601454333
6.95422806849 7.56661976146 2.20688130784 -213.6544596
56.667501221 35.2198094152 57.4141526106 81.7171505524
74.2338869071 46.5376274296 -7.68170448663 52.7540733375
-102.355826277 -33.1965752954 -31.0154434409 -337.406708246
47.1084968103 -3.18091251952 80.0099049004 74.2655614881
-40.3830291263 3.72601631009 -67.0519050302 103.016192798
30.8603164186 28.8984594399 10.8990373877 298.004574334
-21.4621522266 -0.140626702908 -25.4046846785 204.410342714
-49.4355395512 -49.3081166612 8.69457602262 -355.795706269
35.9396935515 15.4791362181 29.4877702687 -295.72242344
-27.42861639 -23.5294654815 3.25344209046 251.213589711
-21.2118494906 2.46971613995 -25.1568762313 166.743029846
37.8411600448 41.9781837513 11.8460565303 86.5919209607
10.9710009713 30.8898579526 10.9439447086 -47.977095713
-66.5833260788 -5.78378993863 -51.8991466465 -31.1097008418
110.5225626 44.946072334 42.3994363972 111.695874989
-172.414714988 -102.85619073 -70.9045721154 -26.6056282875
109.910516162 0.0992052353865 -20.8805251321 -213.729071812
-43.631197358 -10.4456776779 13.8768752136 428.762211807
0.764994174909 17.2862533054 50.8068520531 -112.923311824
32.2827275229 34.2046132565 41.1503737328 -58.9857785018
18.6906519387 12.3540201828 57.8257417481 -61.3073758498
22.8409479008 4.25439700411 -37.625946519 -17.7595006581
3.4105609455 20.2663788231 -69.3760503165 -427.258277083
-98.4194417422 -66.6250023433 -32.7570273041 77.8858644633
18.2670396412 -5.97383016648 29.8578988875 341.16917255
-17.2510036476 -5.52894302754 30.350238518 -150.328580462
43.127827161 46.6133920798 37.4263730415 517.30681099
21.2277219858 6.77916690623 -77.7162563062 -159.434385386
-54.4240805266 16.9358313207 26.00664788 -201.24285117
-34.1471444878 -66.2602325402 5.28254408326 44.2858686258
44.5374008785 8.90831979274 -16.3142900443 47.6747300506
33.7509609049 36.2071760453 65.7405896306 18.9594718097
22.9415680667 19.7387044586 -63.046236997 -5.63384585675
-79.2348648896 -59.2590952425 -34.8978081068 -212.053682538
1.39403938201 13.849210511 67.6826568496 -68.567382357
22.9152777743 4.56650223765 -25.0102515704 -140.184694623
61.4532860212 21.3600229272 -21.9736096129 -112.918024945
78.1846560195 34.327424325 24.2220658514 133.576230965
-49.966040323 -12.0618997286 -32.1254451517 -7.80117970822
52.246589834 37.0711040334 45.2857514697 180.095373672
-4.01839863244 -58.777204456 5.37551373526 115.197546346
-36.7748649876 -23.9458332263 -19.9177508868 -153.069288791
115.021461867 9.630646329 17.112426153 33.1481368259
-28.2579259303 -26.758666467 20.054375365 -102.989672095
-32.9547423382 -16.9426489801 2.92299254243 -173.16976018
-72.7621850956 -37.705151002 -45.2873827905 -23.7271592876
-16.5721129836 3.38116722199 -9.39603777763 164.103699807
-20.6268873876 18.4996242759 19.354063422 149.798574823
-6.47573490591 19.2969244298 22.8909729082 29.8112876864
70.6695300114 66.4794116457 68.8953596514 -89.922278428
-195.825765646 -71.3981535754 -156.78002032 -196.429690707
-10.7989954855 -1.56431559066 -12.2539573197 141.35335002
-18.8030963603 -2.80126233219 4.22843847737 37.4022391622
54.8518934876 79.3675042306 -6.20516544057 63.4578429161
3.82729156748 -8.86439481417 4.88304302817 6.71678236943
42.66205942 5.10568185192 16.5046652197 183.141470372
54.8549883014 2.07546975261 140.877409304 59.3139664803
24.8070773616 11.1057032908 -37.9253989337 51.5334840646
-10.2544958037 -19.1926342874 -52.6858037163 74.2529588609
38.3852697679 -16.9229071485 18.3216577244 34.3242017963
-9.12241282101 -8.72263701315 -33.41073516 -357.793678907
74.876371252 11.2656859616 23.9853090869 -80.0855885442
-35.9444226572 -31.0036643282 -21.6916620359 254.864430066
0.0312422781765 -17.4968732633 73.5473080872 -199.484093435
-65.6089769155 -28.8229429535 2.95785366371 21.7322155397
9.75799061212 79.5465245383 3.987213484 214.249240474
-29.5678248299 12.6133399984 -107.083004142 -36.2172720987
53.8373870435 12.2378797769 42.8994356337 -78.3545590604
17.9167115948 -54.5723362807 89.6457386773 -53.2902136248
-76.5611947254 -22.2224272619 -61.9101279959 4.05019026442
49.5429247386 15.6670133127 -59.1180362251 -205.89733983
-34.1091757245 33.5400186809 -35.4234919919 178.6603079
160.336309444 62.3915286541 54.1066043868 381.607895608
-7.9795192446 13.1351343003 33.9559395675 -208.357514431
-64.1425425403 -57.9799096606 -24.9053807081 -127.514195059
-26.6070663954 -0.0515580748916 55.8418799621 -23.7031800957
-31.2433571893 -12.1770038808 -15.0111674662 -156.230385134
-49.3693430883 -20.3258983771 1.07374928171 302.75524142
-6.76712252193 1.46196061148 4.33524554029 -28.2214527828
-29.8700181533 -23.2605974345 15.209758942 -25.7891741907
-25.0367558983 -15.3422159484 -65.9425617253 -408.901074491
20.7924477211 14.6173978574 48.5363381702 12.1272274309
-16.7767989519 -12.6916204193 -33.0870087211 105.449991618
13.2988778606 2.17968381146 33.532378127 248.296613784
-17.145946374 21.5866029705 -79.5514897231 -144.019809984
43.9131252858 30.6620487083 -33.6418926682 -264.029016443
-13.4424273884 -6.82995034672 -14.8382161829 176.9670339
89.6592883114 41.0124844186 33.7123258659 116.266920299
-44.7524388774 -13.4127227707 -8.09398238906 -259.113412637
-41.3548564912 -46.5239893143 -0.149327608752 -123.378413953
20.5968316021 -18.0258675854 91.0910898407 288.709381435
-50.1802917924 -27.0613450362 -28.8730355468 55.3549979123
47.9417723874 64.5763451433 64.4276791331 164.893708306
20.2954040725 2.75053759686 34.9604597552 70.4338598877
-43.1718777732 -46.2149935844 -24.2899639895 -310.082548072
-23.5431583546 -6.41673643962 10.5013980124 464.690980497
10.4536141542 18.4277942499 -67.9645484747 -52.1838221882
-18.1613065698 25.4333081852 29.7716541458 -376.541756461
147.442354839 74.5926291415 22.3491296719 -187.409591872
77.2195315539 29.0968897042 36.4437800181 518.438530263
-58.8678471221 -28.2939365775 -43.6697110812 -126.061890998
22.4426570679 -27.345780943 77.2901244517 249.833069469
-67.354213072 -68.2137276345 -57.127028129 -294.305190377
-8.50535566131 0.971049242297 11.2745868121 14.7536404693
-21.3264159282 -18.1775916177 -42.4496384128 -281.619327619
-33.0796680884 -8.30055559756 -34.5307692453 4.17845378659
-2.30916019457 19.5390964375 -86.5803957958 154.935080257
-35.3278970502 -6.61939397266 35.2725493073 -77.3840952394
20.0257011016 58.9213785248 8.25889483124 -92.62154782
14.8254414979 -7.67751756326 -21.7164552066 -29.3109540344
-16.0582318558 11.8625760703 -57.3762296157 131.342040177
47.535190405 9.9428101216 65.5166598869 76.523074033
-51.611684113 -24.2818609032 -80.1556093792 37.4273447292
-4.74205985606 -21.2696237643 54.6167779962 88.5930805434
-40.729582422 -32.1343223624 -76.9036697651 44.6881792572
200.79441894 90.5283186657 97.7849650208 122.259853396
16.731838037 4.5369205442 -23.905280902 207.969576892
-41.8466330386 -16.9378709963 33.0965408904 -152.145440091
-25.04607125 -21.1349027974 1.66270726083 -42.4581499623
50.4213028736 -45.6188066567 114.115398189 -321.770800937
-30.475158723 -1.28726811351 -2.21092654205 227.123327879
-74.443460072 30.5823042712 -73.6606080006 -244.51051661
4.95062384768 17.2863599069 -7.47078559607 254.596171785
8.96865362201 -17.5871678375 58.8064085448 -206.163659212
-107.032654246 -15.5024650227 -44.7951066314 388.032557667
-66.4093837012 -21.2162677125 -27.0192754476 -205.390715415
15.0017520178 -28.4393899728 -1.19192751731 -297.71121416
79.4031128732 42.4251868502 107.660094556 -12.8727159131
3.4266027219 9.51439990842 -84.2089702323 29.4063509108
-3.95261635866 -16.7617926995 19.2537859955 22.2791497785
48.5492636409 -1.71993800226 0.991268875562 -280.517272698
63.3310175779 15.6520580673 43.6135514758 412.42354461
108.687935447 49.3560069679 86.2949902481 -106.559028804
-12.8907393037 -2.17088609638 -81.3420579023 22.6692850112
-31.368770018 10.0212937202 -41.5507302918 -258.432670405
83.3138339951 89.6954607944 133.253350833 186.50225631
-8.5207393209 -26.3185323396 -18.8716973534 33.1153612172
-141.06321981 -78.4146628797 -115.102910941 235.032390151
-115.156788406 -84.1856338183 -19.6463221907 12.8937264757
-16.9005357334 -16.8397885447 -32.8611125544 77.7100481604
14.6787429919 4.33827794538 13.578805826 -62.4874104792
-30.7620270479 -9.73711215388 -21.2958335434 -212.516411288
-1.73608114728 -3.24933109926 -68.8581792961 -214.566269327
92.5584519619 58.9974165287 29.1125155881 -33.8658366025
-23.014859155 -20.619438579 15.7303775164 17.2127370059
-14.3164966063 1.10308153205 -30.6659167791 163.066501224
16.504106652 11.9191515787 67.6474184895 -190.102187527
-18.5990061068 7.06128329464 28.9850778946 93.5649610183
-14.4472265084 -2.93479116496 -20.7496940179 74.4687640655
-17.5453119095 24.2933752021 -35.943768808 -74.7941397254
57.9976968011 -3.39930255911 41.7973232051 192.996869252
12.6990369338 57.0810573198 104.914424679 90.7368084747
78.5737222414 17.3233862746 -42.8546261288 -153.428044063
17.6548839784 -34.6627562072 -4.10812816441 74.2872450907
-76.6058944268 -34.0829757736 -97.2216314755 10.4244660643
-14.3165381682 15.3382492812 -12.4743697488 188.486336884
6.09439066895 9.30519422187 59.1758429165 105.111557578
-15.1789362926 4.37598866732 10.5391050556 -172.303115708
-40.0602778602 -9.04707154052 -37.8801824266 26.1954356876
27.9596348411 -1.11531575748 -33.23835476 -126.349784687
-12.567465276 37.3470238288 -18.0237268204 -293.446525124
-29.9690888484 -17.8047175947 10.1047213108 420.050170403
52.9343997356 64.8946296486 29.3811276204 41.9845833924
81.1165116859 0.619420704876 118.928504992 -317.474115372
-7.20152494731 -39.3969985818 26.6917758325 -205.654447329
81.2518614873 5.89352248134 -18.0169172155 167.120375992
-83.4747146753 -52.662829029 -76.1054265152 -3.36627045076
-114.340687023 -52.718778787 5.67627516708 107.750574736
-17.3725224797 -0.0798539093084 22.5216088845 321.820264614
5.66401516387 -59.4644535248 -67.3168338502 -92.7475200827
20.6478344981 -2.54386289446 21.4804184072 -28.0312030713
42.9813554493 44.5291555049 72.0842900774 -172.250152829
-23.0288831521 -10.3066131557 -58.5761951148 -145.529848988
46.7021891463 35.4069808174 -4.46083031903 119.535365574
-28.155657219 2.13844932866 -86.0858076429 58.7423185898
-122.865867366 -85.7903763498 -116.273889925 -192.154871862
40.4120096381 1.08446315629 64.4205323696 -9.2996291644
64.7930003072 47.4686402494 145.532156814 388.371928102
13.0696254514 30.6261148812 7.94705024146 81.0890163838
29.8108001075 39.8129025765 16.7549247661 -89.1308935967
-47.0654321412 -16.2273772596 -46.9156931732 -27.7666565777
5.03742358895 -3.02688536818 8.36004367731 -335.997069968
-7.63095034281 2.91702501888 3.41389311108 292.87466683
34.9976829811 44.3162007179 20.7546749149 123.627304107
119.373762377 83.1076119084 59.1315826413 161.210741605
-43.3524921976 -26.9580181941 -34.8337398046 -398.658037506
-87.2247534339 -60.0699877864 -73.8162282065 -725.732532043
71.6625382751 5.7580702239 8.5564397198 658.149264231
0.418877415981 -27.4308661819 -20.4190367334 194.154061364
-20.3863344941 17.5915501377 -2.52353048614 -25.5435600712
3.05005011384 5.3952335883 33.4168271513 -12.6281592943
-46.9161253597 -32.2875773463 15.6672776287 -116.984013051
142.968328796 54.6233648063 147.130975998 187.14723528
-82.6110577964 -38.7761585448 -69.426644339 -25.0349046012
-14.960867588 13.8873876748 -205.356120206 -235.007903546
-6.58278314837 32.9848963434 63.1084711712 38.8932178959
-65.1860184474 -35.9201042366 44.4013619383 -68.6339087096
37.090036498 -22.2056557141 6.258725658 -54.8591534306
-21.9358573073 11.7426402873 -6.42873918883 109.786934611
26.5745703055 -32.8647953354 2.59926557022 106.631766431
17.8853810013 10.4304750207 0.418812957371 -297.592936332
31.1085004755 14.0440826144 6.50495289716 63.129932634
15.3018536152 7.67275307074 -3.28301266406 108.71381861
58.7088710292 42.6616477009 43.4530323041 -374.882042805
-60.2963715661 -24.2235948316 -62.9025639142 220.834512531
-113.075608633 -67.892401659 -50.6180181543 287.909905958
12.358807479 -3.31342050537 -0.298630054406 161.547086656
-0.504305430098 5.8388286133 35.0102630932 -144.54317503
48.7232992249 11.9338652624 76.9497809432 170.795274551
29.7022355926 42.4993405525 74.3200196807 -5.78283603165
-63.8115957624 -43.7197466227 -97.3193035742 -70.0170752498
-11.174167675 -18.4825280789 1.19218112727 -54.3416947424
48.1043216606 -4.80698233424 6.12674666525 -12.3085567567
-7.00836331029 -12.5155967168 6.88987860963 25.8337790622
-74.4166366907 -46.0348695869 -26.4835458601 -146.078835508
59.4049966179 44.9170872845 48.4768381653 -105.399690646
-88.3950512218 -52.5709179628 -74.0782435892 146.255021562
29.3235346883 54.2663904097 -29.101964098 -13.9852712924
-26.4887789494 -44.8826394467 0.188056067609 86.7862388162
-2.2753109112 12.9550758608 69.9122966818 -48.9245142242
-23.8382919826 8.49523897592 -35.483622994 -304.158068072
44.8602363328 44.1989360838 56.0802203983 327.612638313
-34.2965740462 4.60409307997 -61.0255913267 29.0114408562
34.2247766024 50.2476390304 16.086497153 189.702683161
98.4751720468 41.9729781975 0.548859400329 -438.761481132
-33.5633706159 -45.2077483244 -60.2585556708 -187.408562916
-55.3952900654 -41.9172981101 58.8745610921 143.949073075
16.4587001707 -13.0376198038 32.3662908853 -67.6649587449
-31.7485317933 16.8583377116 29.6330512877 184.096727602
75.4968042265 25.0136458848 -13.3048482611 257.474033607
53.1519243252 52.5244993357 17.5904978555 188.270298432
-39.6241390035 -2.99263096934 -31.6745580094 128.008983513
-8.32230321645 1.5064857483 -74.9317344369 -130.534125801
-21.376056412 3.29836484583 -32.507835708 -138.270158743
3.40727454457 3.81043512867 70.4693811225 -80.532609285
44.7915941532 25.9618693745 54.4053343931 48.246792764
26.6376122038 8.80304271102 -59.9543198752 32.8349382443
38.7844143092 19.8280401399 41.310073373 -239.813507322
46.4433879696 14.15245519 44.959442514 -235.746010351
6.60512244006 -7.51358216841 46.8206003348 314.09476368
-94.8623375312 -123.434979936 -84.546681102 9.70177691887
-95.3546390873 -51.952666526 -68.2931136103 -40.0012727276
70.1042399302 11.3020646529 34.804646477 -401.259761402
46.1326747976 17.8272965331 50.7961067249 74.0580763686
-124.439253667 -53.1076978316 -132.099670334 232.977046207
25.9787975661 29.5625394786 22.3476488158 -290.65568954
-27.5065934304 -21.6666430179 28.4616967065 433.704158348
-4.58977932602 30.4778716813 -31.1161483377 108.431766846
-24.413669539 -41.4235181325 -19.9396947457 7.8640673959
-21.4161971155 37.0681277588 -7.76136374067 -78.1982710419
94.1429870032 63.5788080996 33.3844889783 115.365494696
-86.1658035056 -18.4298516632 15.6990851902 127.581009401
124.604648064 13.0668660789 117.799238563 -58.1951682649
-45.9425454907 -25.5898847965 -6.87934794806 -189.729580052
46.9019128553 20.3647537617 52.9015634973 -330.264944014
-53.7329245938 -40.7098841754 -9.22097005869 -108.666670763
63.6898791687 -4.24858507575 -6.55193087848 -103.607250706
71.6939104619 109.312919212 1.84251006145 397.968411901
66.0724682212 93.9621519905 67.5495490681 -7.35421653095
-210.213090399 -216.037099939 -176.868280621 79.2511788773
-21.7889150233 -42.148732859 12.8606764694 76.3433335372
-53.2718605736 -30.9206120644 -50.2533361285 4.67278496428
3.18343615642 23.9730888366 -49.8551513282 -490.408379067
-56.0818732008 -24.0508728318 -36.8682195993 153.950018386
29.8563233921 38.6752637969 5.5952040121 12.501786549
32.6307292644 37.5406226882 76.3234518734 -39.8148758183
78.5409756186 50.7143830475 61.0011105098 199.400116492
64.5815834123 36.478457732 -26.3080006423 -75.9180831879
-48.774666227 -17.6575039459 -83.403999046 19.6701817182
-54.2562614334 7.37825868143 16.1193343259 33.0342024716
61.2807384337 20.0635362771 25.637011656 66.5410806415
-12.7019873666 47.8799066701 -0.651424069902 272.024937564
87.4036558246 -48.9230321457 38.8111996633 -63.0558357478
3.48172533018 -26.7377797761 36.8276171035 62.9708203227
24.6841208856 12.8899958373 40.1338995453 77.2610203847
-5.39277739109 43.9741829269 -48.0451678824 -152.182856481
35.14677849 -21.6253400061 30.061851751 -144.535145067
-28.6291684178 -0.65282749075 -8.28554084908 72.2396663784
14.3626852092 -17.7931361075 21.5882596634 -287.449100348
-106.595595608 -82.8583355138 -13.7456511249 3.91589784448
-148.066191996 -17.9274262343 -35.2702470687 135.865174191
-20.5752280593 -32.592169303 -12.5304254521 -83.9597019991
-23.0651752825 -17.6236878425 -5.91027809388 39.9879273898
2.37539714753 16.8347301672 -91.2233476693 -53.6564201803
88.8278765616 60.4733181889 28.942903483 52.2352133099
-7.92155521211 7.08385759838 -43.6745261079 389.628258161
-7.98148537344 -14.1602711434 46.4797264624 178.572307793
90.9186787709 5.39648649603 64.2431553672 -272.561528663
-54.7485828054 -66.8650634382 -13.1375486248 -345.291659431
-6.62630955904 -2.94372913396 -9.57812315711 177.446740289
-50.3512992933 -8.35224795511 -62.3833621863 -160.524450268
46.1038455534 51.4642275652 15.0217849259 -167.96851136
31.8440678445 36.8344380767 26.6538601497 136.056946565
-17.1001339956 13.8460609191 -18.710570376 -275.553664549
69.9080882934 59.7794645471 4.63376673459 346.240795345
-69.6244693631 -23.0930410896 -54.0903253013 81.9015111568
138.343927148 45.9784482877 125.763662145 -24.0335339877
40.6621089725 40.3116379088 50.161422424 85.5283652023
-65.0507521873 -47.5206163333 -70.8429352535 73.5158023145
-10.1160308437 -2.50126813693 -0.37796757148 57.2782787875
15.7909833763 -67.150612728 31.7386060874 -145.531732688
46.9190804794 -18.3037778552 44.7752867579 -67.5980433499
23.0064768387 0.0127282294001 20.0557712471 -175.874364758
-40.8558652401 6.82429914821 29.1629454456 265.165626222
-25.3976429098 33.4392864737 -28.1544538744 -121.70636197
-28.1435361571 -8.23473401715 -19.3154960035 10.4871570013
-16.2658139883 -18.1839143039 10.7394149444 -42.149263191
31.9288352539 28.9098947896 17.1955381716 292.546457745
101.510060161 43.423245345 69.8114294053 -2.2856012951
-61.3831238428 -73.4193801376 -30.0023233784 -111.805627625
-137.964764924 -42.3990087845 -155.004387916 -76.2316590932
-38.3670694943 -39.184796573 -47.6471347408 -161.943080462
0.302841665293 -6.03557634499 -18.5940146567 -201.660054355
-59.229244321 -18.6621718619 -15.8028278879 26.8922078687
-19.049048477 30.3734154384 -3.18493097129 492.144795441
-12.6131591788 22.1773994964 9.97113126838 -172.639112893
58.6246074547 66.6880316584 71.0208565389 153.975823938
60.237916656 54.3588760589 35.4227459105 212.574413807
160.389360412 135.546734944 182.938457939 139.076993927
-97.6739601292 -49.5732395906 -199.455866258 -614.525834546
44.1815272748 13.0451969859 -14.5139434452 214.383053215
24.9013796077 -31.3888449551 75.946879344 103.90249829
-71.3868262166 53.3103106996 8.36840982196 -50.6597654914
-67.7737585288 -149.41611772 -116.275150582 -96.2539913228
29.0006742764 -10.6001877334 -90.5957718288 -87.5399165871
-52.5728549921 -48.4035081339 20.3111216885 -215.258507884
31.5165568117 -50.3935853401 127.180417157 188.838242237
41.284608189 20.2499423781 55.7121596129 -35.7970274324
49.8548976674 13.4017083481 -34.9920676961 -166.795688854
13.90053774 -8.39727022362 -42.3081237503 133.353443098
76.1419774302 78.1350494 17.3105600395 -83.6963771978
-39.4954150946 -42.6598955266 -19.3613188264 -140.388977246
-37.6738876028 -56.9884840144 65.8898462528 44.448576668
-13.35078295 6.16173157689 2.20484314416 377.92738576
17.8320380694 41.5815509956 -15.201403923 -184.476577724
26.9955143636 52.0408334335 15.2050714862 32.5515433125
-15.8442088928 -9.92017849267 -9.30966087488 114.819083696
3.14355227166 3.56453605243 -10.4760116247 28.7450777084
-13.7997926053 -2.06923785225 -52.7978446029 -353.259338484
-14.3740468837 21.7264174733 15.146218731 569.240338363
-2.64325256648 9.21398099037 53.0829453809 -106.724806217
-117.326388739 -49.6627735746 -119.554980771 -32.7054499717
34.3298113978 4.13257830293 9.01678127173 -63.2889783396
38.0182967943 16.6848545014 44.8750407123 -80.4557875554
-37.1881072296 -18.0173621576 36.9091784641 -36.7633402027
-38.4693393118 -49.9750776942 -4.57243315332 -103.30440804
26.6411349822 23.2344033847 53.0810187953 63.8441488502
-29.0946341594 -25.5437117223 -15.4131571669 76.7673224457
-19.9719559457 -27.4197373621 -64.1681047359 -32.0301205137
14.8713637897 -2.85196159006 -8.60024051464 -380.592714542
-25.6855573797 10.3884142458 3.60425448881 377.189887333
56.3001150652 13.0323641705 -31.1639167753 17.1575005876
50.8380657037 68.6710364223 4.32382816226 58.4013090536
38.0178975968 -16.1132386268 9.48848454266 262.776689174
-22.2921394501 24.7301897399 24.6967773432 -120.003210906
-53.4932836864 -78.0675181223 -0.551797093931 -123.1034782
59.6126826543 11.9920557984 29.2395313646 -115.442580865
6.46114995911 34.4564123476 14.9137224942 -373.183998907
-42.8259154257 0.546833688822 -63.6297842853 593.783619733
89.5898952715 41.615072134 10.0492764201 -71.4590399922
-5.7774856792 -16.8837864749 5.17155269852 -5.60153903089
-82.6853319926 -62.1801509286 87.1606423077 -140.334279678
-13.9227587985 -35.9072748474 -12.1956041092 -106.933669187
38.4929136746 40.3057436639 46.7547266111 -20.9039642815
-27.968197064 38.2846158707 -6.85205111925 -58.6788836702
25.7530020318 0.754637295378 14.7975249542 68.712411485
47.8063642293 43.0342017876 -25.6168948689 267.880532895
5.6719659091 -18.2971315333 13.7081568643 -504.994555188
19.7331553832 -11.3271894062 -77.7574249326 112.817029302
-57.267322501 29.7087830017 -38.7394928052 416.667394088
-70.9542735692 -9.81405062867 -50.2828634977 -4.72134566177
-21.8513794094 -5.73135710123 -37.9963712152 38.0588777625
38.3419568871 4.0435644607 27.878607723 -245.952595616
-28.1946244095 50.3936434801 12.7720703883 73.2904778421
44.0838202987 -31.1189131631 16.4714860856 118.137023542
-68.4909080069 -41.5988297254 40.1229104448 -79.7263699643
44.3836566916 41.1834964843 114.105307098 -280.920628185
5.91066035614 -41.7263492584 -47.7148169418 575.005846635
12.3341456719 -3.0788773212 14.5693097871 -111.524623013
101.720240182 38.9519689128 41.9617415264 -53.1754506412
-14.4286969743 -34.735011156 -35.5889698034 162.98167414
-78.7914435847 -18.0651604827 -81.223766863 73.5039398281
-27.1037147196 -4.68243825952 -25.9709627289 -84.4156676896
16.6422477338 -16.9407197183 -29.1552875018 -303.758940231
28.1132794666 -4.53671949024 48.8161658989 37.1101006307
35.8768161971 -0.0753112055638 -43.3656568191 55.6669149113
-11.9097880449 6.43434027433 71.6949199975 172.915443387
-0.948170134569 62.5031622232 -27.1968575175 -311.178453829
23.6224029437 -15.9058911777 -1.74505678621 110.879264778
-62.7219760927 -27.5925211268 70.3589329526 241.05528392
-16.2690011816 15.6681904114 -46.5121354995 -234.397682459
-30.4848533695 -0.724348417216 -56.6255072801 72.3114515523
-26.4012363594 -26.0095464548 -3.79471089864 -167.77088449
16.314446404 -1.15108141578 41.4962942445 -64.9594588233
30.6314640229 1.10136510634 5.60255457473 124.767297611
29.9959724361 7.2418203651 -23.8550931018 -301.968432764
70.6980714696 54.0904642283 -16.6909359484 256.616448926
84.8664627123 23.8179740156 -54.5262652472 60.5541948206
-41.4788304825 25.0271467245 -51.876694447 101.854290953
-120.073571585 -85.7491083886 140.578040885 4.77808736677
-19.0640343287 -67.1697627341 79.9831686104 -356.401869512
-56.0957449291 -28.0915449435 -34.6006621571 -456.756652172
63.0506102704 51.5010565608 8.84138672467 310.383191896
-67.900786463 -43.835420678 -61.9778412578 -429.44691893
40.7165771991 13.8971189305 8.54253797838 454.542183928
8.95691678759 -2.06864710504 29.4619257 -28.2580549909
57.2681057138 41.8768170466 17.1769404191 87.3823659786
78.1146348257 71.008488272 -46.9977090862 136.958017013
72.8182735746 44.3522816068 26.8012699738 45.9083400498
-150.879538239 -79.8120450367 -128.381256873 -363.080697856
-3.67452772194 33.4618997109 -4.30742640186 359.726193459
19.7322977118 27.0265820049 30.0693894523 106.158497143
19.9094739275 17.1173017557 74.2174036993 139.452729365
8.17837296671 -0.883682286245 19.2615426142 -188.95285394
-80.997466949 -53.8480622308 -42.1028425223 81.3329293169
-20.9359206806 27.2933599355 -63.3234006603 58.4043267505
37.9979620807 59.8490203646 -2.23855507147 133.816414517
-20.1436569126 -49.0641328349 12.4456444333 -6.40820981476
-53.709246108 -81.111163291 -47.8374582385 -127.088648459
-40.8774656513 -41.7058103789 -4.30311431285 -44.4686513625
48.9363644505 4.07789839699 113.508273244 -243.29923489
-6.51884422664 -26.5456616246 66.7110264324 167.041923148
22.9227188743 20.2336534969 45.9553188913 -25.9119058108
-3.08385960092 9.09408402873 -11.1290253519 361.366779073
16.2148611367 -29.5298930124 -6.13579073913 -211.79119221
55.6450627734 94.597464913 34.1438800057 176.224024334
134.346306804 29.5416153649 6.71318927823 -90.8402582031
14.5969850017 -11.0465493991 14.1079294138 -58.5428946701
-110.849058646 -23.0391865875 -9.47496927276 -242.036053855
-42.0447589113 -16.5490293288 -35.3794898085 -174.793949717
-40.9931685249 -11.3062036562 -87.7399985028 -200.827327577
-21.8282283922 -6.80915953727 -44.6988681963 -54.8960462695
54.1010639117 54.7555787329 -25.1864095903 14.7439866935
-43.8855633523 -57.7620255887 -56.7315729688 -17.8555496027
23.4377904889 39.0321868491 55.8224721922 515.213410851
-11.9274008792 9.05599132876 -14.8185021981 -110.528973771
70.3562264621 42.0262792568 9.06904384321 59.3552301411
71.7575618641 67.2671851777 71.0266343082 -152.540950282
21.4829247245 -37.2436551343 26.7018031509 141.137222197
7.07392650098 -69.0561520314 68.8504676503 336.570202171
34.2552109935 44.2842057741 37.5962110018 164.115030912
41.2513939198 20.2980519033 -42.9505884201 33.5289633918
-137.095368093 -42.8121295413 -98.8008615178 -21.2379064306
-77.8104116201 -69.6443383325 -15.3542631815 -115.397236211
-99.5606786389 -22.0656996919 -34.0283185284 -261.424005731
-82.48164036 -38.4220926235 -48.7389453922 191.993991642
87.2853627745 35.804115818 115.43065703 -88.04368794
-14.376612771 -4.09506016866 -13.0987660542 -95.3919888359
-55.8705775255 -41.5819689768 -17.1728139444 -129.326057269
31.2260488546 41.6638891204 -7.84451708264 95.8401833303
78.5574375609 57.9284411328 98.0970945241 104.068548133
15.3619281595 8.31501065755 -25.7218764696 -157.326466683
14.5093126845 9.84802982759 -61.5660119779 -59.1665257866
27.2336749436 29.337916358 7.23506188589 39.3071817012
9.39597434785 21.0924152759 33.3585876538 140.967778694
56.9181883025 -30.6209931271 35.3710139278 -300.669950028
6.59589422615 -59.0427219335 -31.8787080112 257.797777064
16.5153816953 9.90159407911 -15.7043192504 25.32695081
-19.7284573885 36.2340078247 3.69519392075 -288.245634382
-19.4404952972 -28.4930969041 37.0864332109 -6.53537978823
58.4887139467 53.9001901543 15.071482166 317.898487206
-42.5993281146 -3.32340442989 -98.9604990001 14.3576676146
-5.14658588339 -10.4683226344 -16.4921924976 68.5556691501
-82.7132872124 -42.6445620798 -53.114336481 -277.679086842
77.6604471934 61.7653934405 20.6631140806 25.294176748
97.0029721204 22.423350936 37.2269679152 56.2990933386
29.3730962445 33.076959068 77.0640650147 65.3984583304
-72.5633596895 -134.748214636 72.9970108469 122.350690494
-48.2203845079 -34.01462931 -35.2141704805 -176.525040215
19.6603585219 19.529327832 26.8382529358 -105.120106308
-135.982017085 -51.4263374176 -68.0500403407 -112.095170066
-86.7606563555 -13.8545908973 -69.9376698062 -12.934143374
22.7775180558 13.7427262014 -39.3637406099 -221.617692242
-32.7039972877 30.3079366108 37.2957600366 458.181888974
22.7882766741 4.90299947569 20.6635542259 -206.494115195
-43.1456027562 -49.4045969726 -0.0657509482901 293.542900666
65.5795058486 56.3826008998 -5.04365425774 -190.524544401
31.4790315152 -10.3100983122 25.9838047349 -139.50215671
42.9953910793 7.91739835454 25.8034238972 286.640433071
-69.812925361 -26.2260070634 -86.8241315984 39.8227318366
49.0644779938 49.8897834998 56.1808479428 355.526151219
4.54405005344 14.813129977 33.1379133899 -121.337829201
80.9438938075 34.3662655505 33.7932823803 -180.292974914
-54.1771680889 15.9934205582 -24.0493299498 -131.215226262
24.2484241388 -19.0946666708 -16.8171193093 -17.7168172948
6.13154785919 4.05256251839 -47.5155807259 -59.2479401301
34.9771311493 18.5364089434 86.1297092512 0.216542475812
-66.9958570246 -12.6104918169 -84.7169253096 -426.116996424
-0.270775852759 10.4466657593 -25.6137287811 -62.2803770247
-38.9463482308 -64.0167021042 17.2091382954 301.615597375
25.6600615213 12.353665586 40.7832110414 378.201046745
29.8172102336 37.2660269203 -0.619578498638 140.393549458
-25.6705469593 -14.9653154812 -33.4518899662 -38.3028177654
16.4185598283 -13.1496876035 -3.56800608719 -22.388314355
84.8377365676 43.8557848496 23.8002975397 -78.3912762032
-3.77668568587 -15.713599774 -23.5500772873 202.523831338
-18.4551709399 -12.9792788163 56.1565120658 -254.533024993
-103.461489221 -62.698314323 -46.0327528464 97.8002017404
31.3582358254 27.5113437182 123.070127678 -339.299440047
65.9099365864 19.5378556496 -69.670224524 193.161632062
-44.1270652485 6.1877182678 -78.9531690841 -52.2247763184
46.8588081738 21.279936691 61.1743748141 20.0844354835
-16.7210799782 -26.8130321688 110.626159805 19.4114709652
-20.1795092227 2.85033949551 -6.04439868532 -98.13629032
-8.07601387367 13.1078030779 58.6916941577 -105.768885568
-21.6624005258 -2.12577515343 -78.2235104055 -29.6641719559
3.25649222319 11.6199155282 -31.0725632462 -470.698105815
-8.28693672298 -0.627371302489 -65.3980275678 -126.163619527
57.8350730647 15.3493605083 -67.3952579811 786.661261207
62.5351188739 -6.23804886323 62.0446424029 206.227163279
-16.4420882703 4.81188764479 -16.9321490918 -11.4964023249
-40.8140221465 -13.2245155257 -52.4206186478 87.7857040086
6.26266694662 27.4124760266 -56.5276702716 -363.946308968
16.0698614065 -3.09653879396 9.98080472765 517.633514003
-31.3426531851 -81.0268796311 79.0251457746 -134.154257045
-16.0587404181 -17.6308737756 36.8765556497 -285.633982336
11.5185678096 26.60705365 33.6832600175 35.3547229915
-86.5349763873 -25.8494394193 -14.9483571548 -44.2657674614
-7.21114968559 28.7551075974 3.96478775525 26.1085421127
17.9515624175 22.8577771603 -2.14886222377 -58.6586531424
4.35734366183 -10.3710506329 42.7929558165 -116.087346068
18.4242197277 15.2269363128 -14.4729634315 -104.434736305
-16.6463457933 10.3227630668 -82.8923495009 -170.252995968
33.118673742 16.4545971723 -1.85977712474 374.845139646
21.3915651025 35.5540208038 4.59313677189 144.90538502
60.1258939809 -4.2674190753 -24.6676935609 -169.279012021
-8.80131254271 26.9329500511 32.7563131089 -151.056339168
57.2937514218 -28.3564378266 -21.0526176533 372.065419486
-3.07041731595 10.805854869 62.47603214 95.3176386468
-67.2666150558 -57.2868248851 55.6742415655 -198.784239119
14.4805878662 -38.6912252306 38.9791383397 -187.615910977
29.2256271928 9.39802519161 22.4850782486 -259.303386452
-120.248734452 -74.3547737752 -120.339828207 -331.785359451
0.862112574534 0.202379985451 -30.2768929138 647.184756993
19.0120472528 6.02131474691 2.17802774892 118.493124807
-15.9416598822 -5.38464380951 21.5634841923 68.8384969657
54.3055933657 42.6578906902 1.87227913994 132.03076016
-45.0889860946 -9.76678342026 -62.0161948425 80.0568498951
-10.6093621983 -3.44929397953 18.9067517053 83.8538831327
-13.4384469117 33.3865216796 -46.5481765968 -253.186691567
41.3488067612 6.03803772481 -9.87259302405 42.9859124711
-84.5162010252 -46.4225724578 -23.9497617495 -250.812904248
71.190612593 9.22247265959 156.660516595 -176.011130945
-9.31956651569 -7.51803397333 -1.74210736351 -40.6703941929
-60.4608537124 -9.55103540691 -35.74775096 211.359768335
69.1809543574 54.8290026337 31.3102337035 151.178980563
-16.7029951268 43.0829803155 -53.5213781995 -243.995792822
-30.3550580858 -86.5491251261 -9.24678078804 51.8178660415
24.2861522916 44.2590901821 5.74599002729 -56.3793628856
67.9278865956 27.128035319 53.554077249 173.319075973
-39.9056206055 -24.9846348801 18.0579185308 -215.417332952
-21.1990058295 6.82112503474 -111.168820446 -128.279837939
24.6577777303 22.3380905039 29.1264019754 252.78247004
125.034021422 57.1194277087 150.701359001 250.519108987
-114.097760407 24.6064561409 -69.5090343205 -86.4040114963
-11.1302552191 -35.6754328907 42.3211204632 466.169654273
6.49162921508 -3.02306074497 -29.2901325084 -101.15977492
-6.40381145085 -7.50968742572 10.6988139478 -308.885476233
14.6613180316 -19.4346516292 64.5531594979 -36.2119041698
-38.8048881111 -20.2500746516 -59.8782729712 41.9871354982
-44.6965036617 -15.9165493305 -82.8671105367 -122.219588626
40.3708832742 30.0553970295 -43.5859631431 -57.4491469451
33.0653145596 16.8266731634 5.24049444918 41.0732329371
-21.3556854881 -54.1131413863 13.7044731378 -102.188263357
24.521619582 22.7092132907 14.8011209139 -29.0976962963
33.3430694476 43.0901909146 -4.68329323996 -237.455526187
21.2670660451 20.6399677485 -7.5449205879 554.730651069
-67.4178112386 -57.1102441224 -2.27180053837 -144.351622008
-41.9629949484 -68.4933555721 -26.7160342173 117.851216303
144.343166055 24.4530443394 75.4430057573 -89.1995528716
-70.3177038241 22.254911412 -44.1512905808 97.9718791535
73.8151916273 4.38335812342 24.0126365916 -448.27969664
-38.5986306154 -45.4784349183 -11.2124498744 524.5796512
38.818946935 71.38010645 50.9877484638 2.43815327436
-13.0007295819 -52.4351143277 145.6630929 -224.372062316
-60.4619315558 -63.6780119366 -59.7823419672 -145.308572545
-14.0306100544 14.8993410994 9.36488122003 -56.625455302
-79.3032601523 -17.4371088858 -75.3679131044 484.609678173
-32.3283884249 -25.8524762584 -2.84472228978 -189.505637253
9.46925428865 24.1247615296 40.3828422709 -92.3909296954
2.31740913982 29.1516463423 -25.6126347551 81.6447361514
7.69501821965 27.1865656773 -40.343091036 -63.6041862859
35.5012453042 34.9487832575 -25.1997250539 -21.922798173
6.31386115774 -1.43496957134 11.0853822064 -25.8475698138
76.9344687705 56.7411206217 21.9514997431 18.0643320181
16.984418447 17.6718084836 -30.9957043164 -44.7769308809
-19.322210328 -20.3961583775 -34.0008861821 117.523664336
29.0282657625 -1.69761909001 22.8238713989 -290.762520297
-16.1276885543 -11.5339620069 32.6199708869 205.73782266
29.7411389983 81.1458645339 -40.7421776243 125.780106849
-22.3444207098 -69.8302952738 -12.1262928543 -376.120024306
-44.8366951295 -76.8906683684 -31.5887947108 584.057149952
-26.1928237605 -14.5804082299 -68.9033281853 -148.299787923
43.6410383384 34.6090571126 5.35698355958 -133.405685126
1.73261552129 6.55407746363 36.8874854556 -33.871799326
34.0334451438 -3.62342354803 57.4337400051 -120.630037667
-2.64494939275 -41.9425285906 58.1329302648 260.820398524
-35.7045746129 -34.5491895278 1.25881295684 -165.654875796
-87.9330465418 17.2738956815 -70.7955201866 -122.596891623
74.6014165797 62.6972918008 45.0827248269 -0.845827279353
42.856455388 22.5628079684 7.64626983499 -146.300063698
26.0521166759 22.6111776696 -13.9824191252 16.2995234566
-6.06614374411 19.1148720743 -45.6214056319 84.4482849429
-17.8817201593 1.31502739991 -49.7151890973 128.108690632
7.00736560316 34.2495259969 124.851782051 -42.4650800655
-30.817549158 -83.9513172194 63.0578591137 -192.155779952
-104.019087096 -67.1862789591 -105.431339479 328.116108324
-7.88795833653 -28.4349144518 -20.3677537838 -22.4148504879
-2.23215142207 55.1115330431 23.0203841832 3.55247134539
64.7277096704 3.34462803019 65.1472856974 24.7479038705
-23.6707118688 -5.5187360057 7.87367423382 -2.81729797392
34.9913483048 6.77725132537 -2.05646168904 61.5608321981
-7.27856841449 19.5615623896 -36.8947647033 -63.4084120481
-36.2639636872 -7.76038259292 -15.7808119984 208.204876764
-24.3974796537 -4.79162308912 13.2577007685 -165.573360316
51.5465990321 44.417515533 38.503919567 -117.942768351
2.82838356553 -4.34084195577 6.44440051713 -75.1765563164
20.3525266886 4.31440137741 24.0785284212 217.863870196
-17.6013898336 -1.88625470397 -37.4308454724 29.3086069769
-81.1327048688 -53.0782478466 -47.1072330726 -13.3581879487
20.5008150226 10.1245736225 20.9445638383 -80.1509525584
8.47035673954 4.61792383261 -55.5761282278 -63.0612195662
36.1054621154 15.958636684 -18.165184201 -13.918153583
5.09710104547 16.6928933432 -27.698964482 -9.80370919443
15.7263457683 -13.3788512852 19.4300265491 -126.157802469
13.7083452514 4.0621899743 22.4173341978 -149.895320507
-30.1510719143 -26.6582243603 -1.88279738721 43.3682333641
2.40257841981 26.615522421 -7.07417094488 -214.131966846
-19.6490006836 -14.6993531217 -40.2729982952 -60.1531318142
109.797834093 -3.70008185696 86.7052296906 413.07677391
-5.2332983353 37.1868570519 -11.5510379825 280.849413728
22.135930809 17.160590534 13.928580287 44.4509239659
32.9580722663 8.67481599598 -11.8712066723 -2.37611820163
1.74950014283 26.5492837701 -24.0087208409 174.608811734
-79.6651082729 -68.5393036983 -52.4166660288 -72.8800068951
27.7880908989 12.4401192818 49.2065413194 -118.418572175
8.74743455276 -104.496792348 226.075021548 -104.077254302
-99.7733607729 -10.5738589184 -87.2663205881 -122.121210682
40.4589430239 45.3502354805 -62.2678006208 -15.9470133883
-25.6767531479 -55.1173739108 30.1583085033 -36.7434842309
-12.0623696775 9.9273625179 -19.1685477108 102.345853851
-58.2215948388 0.932219742311 -1.49299174336 -8.04179050076
14.3731107881 20.5501553449 -4.24933798292 25.0335702329
-18.4126213055 42.3639572525 -34.5705069782 240.716851727
18.5435531335 51.5026162973 -45.8789507288 122.949190432
13.9022497749 39.3729000741 -25.1107921898 -443.435780434
55.5957813285 26.9138437635 12.4329928211 206.766763673
53.3188228337 1.71412683246 80.2215818682 136.02588647
35.9070379521 -9.97313141699 35.8080180773 -27.5212560001
-18.761219719 31.5915162352 -9.83158192074 -73.536590333
-39.2203639504 -77.9797434788 12.4667865962 187.118511406
13.8544401408 -6.74774911115 -84.2942743913 4.93616575453
-1.84598904338 -27.7517574857 -59.989174257 114.113987427
-25.0374033116 -7.61083799195 -53.7663597937 -309.894385727
10.0101386639 62.3950835231 25.6645817313 -217.080979143
66.2722498779 -26.4132976382 89.892163042 -191.590471801
32.1364031058 0.0264709390028 52.0102728756 -201.227589345
-38.9241776769 -50.6424282506 -5.69825098393 -428.179127418
-79.3367424768 -63.9003221495 -58.4228516864 594.859316868
15.836150324 33.8361204965 8.36317218374 -406.039830652
72.7003159247 26.0924419026 31.9534379468 693.598023677
-11.8215064801 -5.06474044222 25.0923518685 50.5076995119
-37.0700503447 -0.287241753322 -6.1005213282 76.0483860801
-132.836753203 -21.7157723134 -100.279165929 -73.1505491888
30.2697404017 8.23647010637 6.20626752259 97.1503757258
-12.6328209498 71.7518220254 -23.9164443623 -140.401046689
42.322292961 -25.1200659011 61.9797990332 133.003618373
39.5352104789 10.8328080901 61.5647648096 -86.2276989608
-36.857140503 -21.1678714128 -30.704123293 -137.167585261
41.0732839903 26.3790567156 2.49029665883 -5.28186436074
23.0899614775 17.9140758025 -16.0342579017 -38.7411091861
-11.664745664 -7.49427816254 43.0376327227 100.33800985
-33.242779903 -12.6411234977 33.2073292609 -112.184721038
-118.340865462 -81.9710684314 -33.8373499512 39.6170474845
29.6115499927 -8.25394448494 -66.9232848268 -64.3338141465
-23.1770995843 16.9606299664 14.3484598416 175.15161222
14.2120924029 20.3413648083 12.1742195489 -6.63658114256
7.88537404676 -2.37158913755 18.8360188378 -48.1757838704
-6.7768666328 -3.80093491658 -55.0948307821 -131.798491353
57.3890408549 20.6918235883 28.3603316176 184.708943546
78.4984984774 66.8100874051 49.9518186642 -121.638947964
-45.1265932272 -17.3783664173 -109.597231331 -255.834064159
22.6318765654 36.2490102874 7.81213947112 306.150630386
-33.1982185777 -10.6202708559 -40.450186435 72.4607062809
5.3331367951 -18.6740258274 71.0046343221 53.2809392701
24.352431196 -17.9285459185 27.8909326422 110.473734785
-0.351122779972 -33.8162307587 -2.91528558393 -48.793767058
-5.86604141679 -7.26997705998 51.1500151845 -139.328935752
48.4389082957 60.5773837858 -18.9447457765 -14.6479163055
110.612094876 -17.6383957201 84.9556670801 99.0043187698
-100.897320097 -47.132085064 -5.1767852108 264.043974923
-25.7683415678 18.1088527091 -19.8125800824 -355.426832994
-7.59738418003 -36.2470853971 -55.8051194362 -67.9174986959
23.8788708731 3.8368740313 -52.9197111962 -55.6659187
-65.8804121316 3.18046462028 -20.5537673032 -83.7421729552
9.75844210019 5.7441904166 -54.5063003418 110.615641141
51.4321769268 -10.1980397217 80.5995286663 -143.011728295
8.25838429602 -5.13030659857 -7.76802673042 480.50431058
-28.7195603285 -25.1475125362 61.990386274 -138.777797205
-7.90423144563 13.2392173938 37.0904100053 -15.2398397785
-44.4799340059 2.19627823318 -58.2255093292 -176.340418451
60.1560734529 49.2675511064 47.2000849286 12.1244249617
-62.535433972 -29.2743587458 -57.078534996 63.8974028611
-37.7087516517 -32.4698327778 -27.229726567 114.998359124
9.80275535071 21.1786722982 5.82041563789 -139.724439573
14.362568811 19.0661282567 -52.2859539335 -98.207363675
16.3765685434 26.1815866305 -18.1490986559 -112.035747783
27.2089653886 15.8735701669 43.1762988959 153.556051812
50.3399608952 58.9144444204 109.501830718 225.978252107
89.203114559 2.72099206332 56.2580486521 33.4334258574
-47.3911830318 -19.5088747395 -54.8947387016 301.040844116
-42.0380125334 -11.8624750318 -46.6273613057 61.7999715791
-22.5427248201 -28.6492850033 -25.2192918556 -96.1240013327
-40.9285082438 -101.369467546 35.0381063714 -135.937380143
-17.0239902807 13.1776997669 -4.97285830566 -86.2708358952
25.5983843043 2.34214034626 -59.7269104016 -282.382611252
-70.2907696724 -7.73709309091 -43.437243018 -114.223941411
20.3237572887 17.1121714691 12.0404200091 -113.850821172
-9.71643018197 17.6131828363 -0.534311314154 -24.6971911722
26.292953697 53.5084301576 9.26406513858 -79.4215863953
0.0290247021822 7.4157592017 34.4004006993 69.3508485635
62.2644118857 57.6645492007 69.6467279618 363.101114988
-41.8270956034 29.9399510938 -18.4544524523 -287.101002383
57.4105714612 -29.6264694455 2.46302374624 -212.967887604
36.5540932625 -1.27674918872 44.6750320066 539.002569024
-62.8957634179 -47.4777521584 -137.295702361 47.8306804805
-0.0660009219181 -43.3698107027 -21.2058888705 -183.057914212
54.122294446 19.223947641 73.4421614736 -168.40549497
-4.21992027364 -19.9629004454 10.3877358952 318.070430915
4.73872779588 6.48155623114 -5.21617231984 162.697088448
5.34102348598 1.57423556664 -32.7250013794 -65.1625597366
-31.9128014494 -6.50782192966 -10.2863932978 -144.830756762
4.23794571153 51.021452661 -19.4158573733 241.057469211
-52.4054220881 -40.0807724922 -15.9455359248 -88.4040977991
-30.8995226176 -84.8251078984 51.4622783338 7.57517530472
30.2849037892 55.4578843764 27.3869232662 -155.279668701
44.1258953438 25.0320627736 36.9888318471 -182.285822483
-31.5098629235 12.8540737406 -6.38397207453 -201.140662155
-40.573781378 -84.7761320662 30.9660334708 -29.4980913537
0.0707700259563 -10.7551796917 10.5259692731 219.318825682
37.9377979385 58.2728657464 0.886432958264 66.5428891573
26.3744141967 8.61879923102 23.6184718525 42.3381729414
1.67858607836 17.7098963447 -10.1638351111 84.7545939972
45.7741191348 33.9989483399 -26.4300980403 155.544659893
-145.968175787 -15.6789041568 -52.4683762029 18.2557741944
63.1747922367 -0.980977366693 74.5376308479 -78.1846044748
-14.8890908546 37.4695149444 -85.3552903407 -90.9879796045
23.3288304242 47.8952172125 -5.99153700655 -156.287879842
19.4759473529 0.883623424302 -16.6385665688 155.492742491
-66.9991417763 -35.4373615924 -58.7635161825 12.4558984897
-62.1438000637 -18.566060662 -11.5851987447 -25.0841567397
-61.9298460208 -41.5370728667 22.2453466246 -8.18473762351
25.2331950858 -1.34460525454 45.2641563104 -105.828756926
-3.68216973125 -19.561556468 -23.8396693854 -32.9057185195
55.2313466405 30.1283049312 5.83727659831 149.134217997
30.161351453 -6.17130380035 42.8317770963 -103.028873896
57.9342376728 55.6498646756 7.80174074851 71.3108838327
67.1826935173 20.5109693763 34.475624678 -124.51646143
-92.8232775293 -43.0969954349 -97.0068649424 56.0604291161
-1.26371120146 2.53503396861 4.74234405633 99.2524581938
2.06806946444 -56.6100578642 -5.39431693166 -16.3411185948
45.3832931106 19.8622995406 -7.0571321745 248.636773393
49.7495065923 43.5491078864 42.1919946039 -284.96696169
-53.4860969684 -49.5772525521 -25.7405658539 103.88994095
-67.952774425 -62.2041539867 2.9083713975 -167.334406099
46.0185831951 11.5832706983 31.0492924238 -91.4154973143
10.089709902 -12.1779728283 12.5500494333 122.864578319
60.9755292699 29.5275847956 42.0316766008 82.7739610915
-21.8542539054 -33.842430494 25.5904378866 315.824936363
54.7746172284 73.797073907 26.2512853303 36.3546135978
19.8994265493 3.2166730129 46.105139862 -136.050312192
-35.7968872011 -8.91451209084 -35.8253546916 -286.973842559
7.11734638867 -19.0382118853 0.810426224814 -57.9659128286
-64.3836118499 74.8522838364 -47.1240141386 284.568801552
-22.3567773184 -5.08483296665 -38.0454520059 13.0152200578
-42.098194584 -18.0330937511 -4.12940580352 -210.259806308
-44.4218424739 -15.7713258868 -30.373485319 -36.2488817077
71.0482013551 48.4961372274 51.3223484049 289.330000785
3.91034334087 32.8729082138 -29.8564393449 67.4848460981
57.6550481958 39.2286503331 73.9034276978 -123.497481963
-57.415767106 -19.0543656168 -43.8153137031 -148.19527367
-58.5170415529 -75.3560550727 -126.502877467 -157.816250496
37.0718829953 -22.4237778811 46.7160682726 -49.0875452844
-4.8138469442 -15.5455547979 6.40989822435 -32.6285997058
25.1675449177 1.31420446298 10.0466743075 -34.4272380678
4.71919072298 -37.9711445502 -57.7460203513 50.4225440155
10.6275865085 -20.7444497734 -6.23418151597 -208.316748069
28.2784727344 -17.9197131924 46.7685875677 230.635485181
31.8574694517 -1.07375895763 17.6434348761 205.967305488
69.3011266642 98.7188615714 83.2478323581 -203.614290979
-71.8607170104 -25.8162897799 -28.581796974 -337.288898516
-6.9369302939 -54.2619548363 29.0513798401 494.219200867
-7.58229159091 -11.2885527095 2.59837807089 -10.1936040446
-35.3496645757 26.4318861184 -46.7525037842 20.749122851
-22.1474846954 -8.06656526694 -12.669013852 25.5908912138
-9.18592394859 -2.25229249086 8.04533043833 -388.667319826
63.4146326701 72.2579744049 4.21920239701 -115.281957044
41.9231829903 25.604321239 55.2718679579 641.029103447
-89.4479786653 -15.0674738407 14.871266127 -44.514046466
39.8645271782 11.8454109033 -48.9473514158 -101.739846919
-110.514641962 -23.2425959891 -55.8371349456 -120.383986959
65.8849559541 -31.3729426254 6.30093240658 -365.791618866
-105.587593663 -3.87901024089 -82.7510069951 573.152976313
52.6493494161 -6.26513465526 68.8543195918 -80.9529285701
36.1701251206 -22.6447850286 46.267902753 -16.8910707059
-20.6826208982 -26.3085920363 74.4526368515 11.9379433969
67.9699693125 95.7982476276 45.8027529273 318.927325571
10.2565083365 28.2124353967 11.5551412194 -216.489840526
-100.422122803 -129.545742085 -140.100588801 -92.6661528919
-29.2955530787 41.426704432 -78.6106309726 116.720650327
28.1297854655 0.149854653608 -21.0187879922 76.8010850582
-35.7828582155 -29.8296069341 -36.8411960226 -79.6403978346
3.84656283249 -20.6417816685 40.3148475262 148.387335772
41.1149389004 18.0180214544 76.7639910441 -154.297253656
21.72489538 20.629140296 -0.662254550592 -41.9993517866
56.2392204823 35.5331066772 4.90446749491 -28.8150865748
18.5349958362 57.1633277835 -28.9324119823 -142.536627125
-98.5847764678 -78.8099658755 7.14131423922 34.6915506016
45.6135294089 15.5602495664 38.6548419167 314.267192556
25.3762247145 3.02643970212 -49.3802768472 106.566049156
-12.6887982879 -4.78477063489 -9.55230302702 -249.337981874
106.604337259 39.4946280739 140.583992776 -67.0138425041
42.7307158246 2.81988176882 90.0455722491 35.6389714108
-97.8686666871 -30.621340239 -74.856421494 -107.95472783
34.2188189441 25.2648551953 -56.8255827075 -46.4267412635
8.24316437091 3.68548845931 -11.3884331104 -260.325621567
-69.8537015012 3.42905393668 -7.24467082624 94.8231636915
-105.773720202 -58.4350955146 -57.3136794809 -33.0584735605
56.1232677199 49.8301220185 62.6365817419 244.034998628
-10.7372175793 -114.847899057 12.0138549227 26.9223769392
-45.6318162073 0.947375517168 -70.9875538811 -235.576175845
17.9304835979 47.4043434183 -27.088814977 109.797369459
71.3042159758 52.681894715 40.770985433 196.340569913
-30.6918614597 -8.51403931628 -26.0928165666 -49.9499519619
20.8535095186 37.9279264687 25.4082925756 -94.3331009673
11.8351975172 24.5805756891 -3.23937530555 176.797952369
-10.7051085744 18.5876216849 -29.5020605667 7.19832662019
2.80613350039 -87.7092804766 44.3559551263 -35.8862601629
38.0824574914 -15.2566976614 19.78374743 -129.679432479
6.67991332831 0.291985879103 0.866583699087 -188.029389728
65.9637243692 31.8189326716 60.7495551339 93.976036961
-29.346526588 -38.0526289896 17.6231026998 116.352331884
-21.7967813024 40.1372915242 -19.0621060912 25.6932161072
22.710107493 -5.02550120602 -8.35209982318 45.446530568
-80.5175337879 -33.0455697828 -59.4005877768 -61.2075029361
-47.4411753797 14.9604911241 -7.09216277032 52.375570927
-35.0562803543 16.0586015431 -7.47827774714 -151.515831559
24.5673386447 32.4483881306 51.1536193161 23.461981171
121.836524487 83.5680795183 -12.8852904217 275.015672021
101.711795628 22.5163857804 148.223461032 54.1996183669
-13.3239539956 -42.0993323035 -33.2402922491 -284.124216583
-191.874092141 -58.0377944019 -78.6764234508 125.848084336
14.2410779699 -1.76830399212 -69.2673341019 24.0189882205
63.2519452999 10.8945810802 -71.8732414451 -48.5958828476
7.63116369295 41.6152675539 -67.7593891744 17.1107567496
46.415545484 -18.0455777188 37.7860958164 -8.36603826569
-68.0007529197 -139.17714236 -4.35493591447 -95.7686272601
94.6525292213 70.691963068 91.9757719297 -88.2289196779
-0.522254486455 -19.0827407216 91.3984053785 -7.16522004458
-125.896352773 -48.2328736156 -76.5988804456 -72.5746004326
7.12264815034 7.07299766646 -17.9100619497 96.6255133858
-17.8792969588 13.3412491157 -4.47926970365 -19.6328318298
-98.4647935832 -58.2133558497 -30.7647199085 102.466119347
-12.5460873904 23.1982851749 10.8327415464 138.028978035
145.152224086 93.9304172265 62.5241433017 54.1862514379
-136.368726276 -40.6494604058 -152.524423677 -101.767809652
26.5535067567 12.9620033675 34.0096114958 -183.129309449
65.0499492681 33.6286814318 102.190904361 96.998678298
-45.8996254945 -26.6037668402 -46.790093931 -6.17506861395
8.47058076097 6.71080992183 23.4466053804 -52.8383259072
34.2330906241 11.8731524591 12.8506683736 -417.075438836
-30.0867120659 -31.1685728598 -0.502002483666 -40.4551578991
15.7692589475 29.566166436 -18.528859134 632.322724229
37.5016549093 9.81813568132 -20.6085628019 -19.3410681619
47.3901818399 -22.1560589571 15.726470767 130.704519678
46.1945932607 34.1563447577 65.2535733004 -67.5108483539
-89.1365899067 3.72973609947 -30.4533378514 -55.9019545464
41.9514772538 24.6608023951 -6.81378506597 -1.86985687337
-53.1926840183 -136.017988744 28.9775834989 126.368168933
-53.7740256652 28.0326834768 -18.8775405265 57.0803138139
37.239270388 41.2795807908 -1.37861797605 -270.499966588
-88.7943271233 -32.8593909018 2.46803627739 48.6883605547
92.8655516646 22.5215376018 27.9875774893 -34.9245898874
52.2119662305 -21.1158746353 -79.6478577036 -60.9766201199
-4.9878164327 16.3722210822 -0.538752189952 -150.952379739
157.36441277 131.072827719 121.893519508 -3.05087250235
-117.632859869 -60.7739028592 -105.906965801 -43.985657291
-70.5933565509 -37.760294408 -57.0789303982 223.386650466
-78.2773619581 -20.4238901286 -79.9138085274 104.018890244
-40.3877413488 -43.8977735006 102.964342427 -88.9497347285
13.0554631637 -34.4407682013 14.6109095838 -119.993246584
94.9610470234 61.7184614726 75.3935381805 -150.936030349
62.7447386212 10.8338685317 31.9553862104 -1.22433112092
56.0028687855 7.16718006075 19.2983240151 234.832864076
-28.6116957813 4.97366116687 -36.2509340049 358.720812609
80.1276596339 -6.32426565349 34.5839432242 -41.8454262865
-52.6995704634 -35.3230027199 28.3664445448 -100.552261147
-71.6546437776 5.25423950925 -53.5893070909 -68.0437131125
27.3896874571 10.318109465 -27.2992948235 102.571430156
-52.8781740954 -41.7417806889 -78.3069375879 -99.8456070176
15.9065773231 11.1950681244 -23.8133497894 -65.9820637335
-34.7430364376 12.7944247459 -27.3172880625 221.403583534
12.2118612389 38.8775004618 46.850836594 -237.548736672
5.02398776662 53.0940273964 10.2771827266 6.33878580564
20.7533729412 20.7635004625 98.1258178146 -121.764922591
33.0175676232 -46.1607058916 -15.2546589519 69.6593246223
-41.4531107862 3.86452773985 8.92268950536 -98.47596183
-49.5522881051 -35.2127858469 6.1136132302 128.255436403
-10.9290560767 37.5003054614 -12.892009544 -28.0744563577
15.7487156117 -14.3603906423 -26.955871545 -131.207999707
6.23628176267 -6.88665802442 -3.01368527549 140.002962633
80.2464821047 23.1116516608 -5.48049326822 -93.9346916707
-27.6619771937 -34.2089804123 53.9410061495 132.514955192
-20.0384366476 -32.0476737873 -30.7140257086 -187.063640037
-26.362135627 36.4010800067 30.91981597 -131.350348252
-13.8244481881 -82.9580610069 -14.6423145628 130.132616435
-50.2318553825 -19.5566658413 -70.4927957154 -205.273682591
23.3770109991 35.0892663441 -5.64657646847 391.680536263
42.2158239308 27.5278642399 21.6247708464 -85.0798549887
29.7174796023 25.3858278253 -35.3801403861 237.26896401
43.9500146207 -14.397619851 12.3525887141 -69.1545093652
31.1389518293 45.6850208831 9.63516909338 -123.422003506
2.43263932278 -19.371679314 59.5805098888 237.113014571
47.207197797 33.8463937537 19.5751726938 10.1629730806
-41.8757746436 -14.5070621841 -33.0238267542 181.203046965
8.79467095801 20.4289116764 14.6675381211 -95.3683699994
-2.32149600699 -19.3014720066 -33.9561592611 45.6246850498
35.2749310042 52.466368712 70.596863484 -298.174509131
-87.1424138079 5.13137694826 -96.3164732551 -329.695460184
-106.55269838 -167.563927405 -123.983070537 37.9834455047
-37.6905658506 -21.0177104481 31.8341445135 129.056567344
-4.39644156161 53.4975035238 17.3056898683 -358.867731798
9.43400136263 -13.1980455554 81.5580857132 279.52864888
-39.7930241515 -30.3555163736 -0.320061090328 379.721911519
22.5515237218 10.3074872753 37.9880908722 -47.2075823605
-34.6797850907 41.1291664767 -26.6490813033 -182.620163834
111.130300033 46.3585166179 8.04807512158 -6.36813383158
45.4287638449 32.5339955935 38.2215252824 165.020648885
26.2261882221 48.9814891062 12.576688 -87.1059620941
46.6476687761 13.2184594119 -21.7397542626 69.4121585797
31.9415988978 -15.4047870726 -29.9757991461 -150.04832516
-39.1450751431 -23.4803295437 -44.5385860027 -49.8005092067
49.8632512964 -59.7895237248 48.4031047356 -240.808890043
7.00662740284 36.3179293088 67.6931451853 -427.467970077
-135.331928585 -121.454888212 15.8220501732 31.1922115437
29.7991907319 86.8186661317 0.442347588222 1167.42233328
-26.1709726543 11.1345064487 -54.0685263379 -180.153391863
-58.3947457083 -16.8510979309 -73.7194559102 -18.7894544734
-16.5151270945 0.243804398429 -10.8878531884 -65.122556209
44.4023348264 48.7316237749 49.9585115206 4.93024859294
-43.0718179291 -10.532673841 -21.1492107463 -177.953912913
-107.192630452 -12.8952823481 -138.196271204 -562.591265631
92.8788333459 52.8200999821 47.4774388886 173.539755506
99.9119430227 -59.4285320246 161.452060237 345.86600649
28.8933426676 60.4262228364 21.8780932888 -57.2551514876
10.3789639288 1.48120796034 -56.4037821932 -113.750963426
-18.6717799828 -11.7467172424 -91.2019717942 108.735546664
-47.3978932686 -73.6537184274 -60.1044409486 84.436491488
-81.3506947868 -60.8993673715 36.029180843 317.181910231
-3.91670986111 -34.2841923811 29.3717344396 -166.223743169
-47.9017682586 2.70587395939 99.4319142771 -314.448727406
150.402082104 79.4352646462 63.4963775192 -227.409018986
51.8704835029 43.4556759275 41.5686793178 421.98870396
-16.2648150493 40.1910742364 -1.24477491368 83.5921270319
12.877755367 -8.55017597255 -8.57934814709 -96.8471106829
60.2932525701 -20.7895243815 -24.776783133 276.43200156
52.4569197098 11.5361186631 42.4364369952 13.9811709817
-113.834979772 -23.1540053939 -58.3259953416 -66.7174469305
-46.601533402 -18.1609705393 -135.617483038 113.199423768
-38.9795396219 -35.158569323 -79.6272797166 -132.639280784
7.6252129987 96.3980396427 5.42689443975 -152.92660887
52.2660049665 -49.1603989612 37.4839042914 -164.427859591
-39.4578421692 -39.9373626956 61.803135339 -445.866255648
-39.9431696437 5.16859055049 6.67050087795 457.211058923
53.2033835484 20.2815487074 79.9036976775 175.267106096
-26.7400272825 6.55465137278 -32.1922506033 -53.9342197784
49.2040433073 66.0937462543 -22.1762545782 47.6797021802
-5.10663141713 31.9967752428 -52.4439363124 -47.3056346116
-20.1633320808 -15.3375362681 -9.81736621948 81.9655330146
-56.7722201307 -120.838782706 -6.58397763701 -235.161107287
22.0360252482 76.0246897678 -17.3549768001 -324.381734001
23.6020655916 31.1862508787 36.7708946216 378.171119438
54.9462727946 8.77045454511 73.6842945265 171.139819374
11.2894856621 -17.5383585259 -26.4492201111 70.0647422138
52.9251224717 21.4639685935 9.57274283074 30.4580285875
45.8402359783 21.5976316534 -27.2699041096 33.6793661891
-43.4075878558 -0.257646957954 -17.394442277 -164.466216346
-94.6352397564 -93.2137220015 64.9845704248 -397.701222824
-9.77602101979 -70.4396261276 -43.7800818534 62.1750676804
7.48976410155 23.637804362 -12.2807344259 562.992846925
110.573102235 29.8203079663 76.4570415442 -202.775538047
-94.5973951901 -45.8038255407 17.2090338983 -241.443118094
-36.5349216496 -37.0846436117 -42.0227262384 -96.8979529509
-18.6319431131 -32.750520277 -42.8400908987 430.350431871
-25.9478901558 40.2182992259 32.8942157029 135.537851662
4.16197023768 50.2498721775 64.5629983374 0.00215917591447
4.98231934457 44.9828604741 -17.6828382333 -180.573334912
-1.62098237452 24.7714799205 -56.3101230377 -97.2134170702
-21.8377184658 -13.9139286712 -43.4685369844 -78.5986899232
1.50335295399 -17.1326288142 -16.8722088094 -169.102466732
-11.6324570049 -20.5453311574 -21.7867404732 -3.66053842519
58.884104608 22.3584976527 -15.6215111859 31.0957761526
97.0301969943 70.3686511078 59.8247527685 94.2089979843
-17.3409480357 -59.9331407906 78.9209257389 -133.227491145
-63.5360992288 -45.8889498144 4.40950103392 140.913195267
-20.2187574296 62.519646311 -11.8803674867 22.7033342285
-12.6306878614 -99.8334618242 -7.61063061371 -16.8543463583
-55.8029741859 -20.4172721979 -79.6569260445 168.592522041
0.334001828827 -14.7260354628 5.59534555994 71.1410683566
-27.3131113831 -23.0849541788 -27.1715645803 -143.232588177
34.8064865803 33.7428657641 -9.12840916115 -6.6371984658
27.7621579171 44.9661322462 -10.0631630628 52.2405904762
18.7975350603 44.8747383626 3.98878224094 -83.4632048409
66.4389535996 66.9938982343 -12.6876661976 -437.631674057
-18.6539713178 -46.575679194 47.8049937923 -51.0423470793
-38.8397974698 -43.9129464563 -7.97374792293 516.15813989
83.5048304905 64.4142082459 83.267136805 -92.3887280219
-43.5565204343 -0.790113751814 27.9959969082 -499.928999111
-19.981500909 -43.5225279737 3.53904994557 184.605712781
6.38685033082 -12.7303231127 16.1761541222 496.480543429
83.3228804022 62.3741161387 83.6255137173 150.864430254
-37.370703745 -26.530134682 -94.1698380229 -28.7591753088
7.71654376731 9.90692723483 -22.3613499302 142.033885901
130.958214906 84.8290858085 76.6345931592 229.120748744
32.9185136677 21.5846055026 2.26910451054 -178.7810769
5.41811722021 -15.0851406064 3.22312650108 -72.3710055017
-71.4544892667 -62.5920889366 -69.8803498561 -194.076359655
-35.7305195816 -29.8680103625 -66.5326655424 -194.027719218
-65.687123719 -39.0340632411 -55.5330717209 -175.705045334
25.6081144932 63.8115269926 -17.0649078943 -119.465779418
-16.6378740483 43.5514901912 -4.86036939978 -62.0125941965
-121.765364065 -146.55854958 -39.0940781288 10.3603414629
-58.422387154 -27.2733660753 11.2074140738 49.5041261648
-1.3037970015 -9.74518741829 12.8684307974 -38.3556322789
-30.11182272 -8.59321171468 12.7523022618 471.829577072
15.707212365 -3.46016845837 62.1144719551 45.8502872489
-4.99340198638 -0.937317864314 -5.45075160464 -478.203804972
79.7770874995 91.6619379646 51.2669315764 520.08416483
-3.41460804474 30.6261182558 4.51916081114 -249.595063527
37.6695582495 38.6877426733 58.1032800262 44.0885812508
30.9898230574 -27.6176509039 23.0608589607 81.4539688115
10.1552257752 -36.9768221745 -3.30797360975 187.802694494
55.271942975 64.6049354823 -20.2433429092 15.8012560415
-37.0390700597 -60.1785971066 -31.5362258117 -194.776550598
-8.34024373906 -52.334139426 -13.8706834146 17.8109996294
-33.4723050885 48.2063245118 -89.6930684254 14.125898179
8.35147991374 0.517707312872 -23.2023733652 8.55932762566
47.6035151473 27.5639937489 -2.36534898868 15.2803842596
15.5832391151 -12.8047875427 53.7217065852 -24.8329208764
-45.3369803355 -7.76980420321 -9.43996402362 25.0334412793
14.0065557415 22.9534466322 -29.0344377831 -53.9597109539
37.6245415938 -7.3992312693 78.1494164898 17.0832825487
13.3980467404 -33.6844838191 34.7595668823 -69.9880238876
20.4436701984 -24.044892119 41.9722112256 -51.7904512343
11.3967191676 -6.45158525455 21.1699950621 -107.989175391
-11.1866610143 -1.3954770714 -16.3639060724 3.59051479876
-22.1730899534 20.2395093312 -18.0504949603 27.3213439607
-22.7354375163 6.21099763037 -61.4258706247 14.099211686
-20.2187972445 -5.49614769312 -2.53072905548 -13.3149391676
-63.1570009274 -34.7232636139 -45.1506792496 -215.950886667
18.7208133996 19.7511169456 43.4883443732 259.073800677
41.2663055143 22.6973431479 34.2510007146 -1.29150584698
5.15603901621 -15.3299544264 -11.9915942612 -188.427827653
-97.1480788181 8.22032665296 -53.9584851034 60.2904890006
-74.856569969 -15.8681061636 -50.8852905174 130.194843479
3.48930998154 -7.41248911339 30.6085129008 -179.502365198
-2.25727000675 83.5515200408 -10.3502820154 189.153591074
70.8391688563 -5.66494136262 -27.821669357 45.9295399745
-117.824892117 -75.2730920059 -36.8228069963 45.5616809736
188.878023968 119.110716307 127.823837856 624.175868822
-11.4523862486 -52.0645203127 -54.8507326136 -372.839971877
-43.0808129597 -60.9348911502 -19.3312031949 196.756407352
18.1629702628 22.102400975 1.5672321938 -129.804711321
-16.9570428432 2.77389895938 -69.1542810146 -323.028504058
15.321156456 -8.54669089805 -11.4488173974 279.73302069
27.9007772315 28.3222493411 32.4418363608 -153.897380002
14.7895349168 9.12547370144 189.829054939 -36.680657824
26.4082087852 55.4701857416 64.222854285 16.5775259532
-1.27912102795 -30.3116718197 -19.3983708852 -122.33475773
-52.4129563905 -24.150396906 -48.2650125843 -131.784001207
62.1825614995 46.7515841754 66.3759896402 -11.375594191
23.5618926959 -3.20633834857 -23.0913145028 -94.7655324967
36.9034964404 -4.27754956572 20.9104521915 24.2839093927
11.8690517752 -16.7779194359 -3.57201732257 64.9344956621
10.5583999976 -24.7966861515 -24.9537634801 136.014571422
47.1952758542 50.3170146311 -48.7911559692 -29.5764278532
-166.615826588 -78.4198813871 -77.7329027122 -137.801667442
-42.8495339072 -19.986755426 -36.7948144246 1.01428891308
28.3842170486 13.7715461451 3.66936974057 -0.509232545336
-46.8455477835 -3.56693234026 -55.5411952056 77.4185145054
-40.105609818 -26.7771608075 -30.133023222 -38.1908816745
-18.4407744525 -25.8675715895 2.60533353389 -129.057843944
7.41856204971 0.653528016564 -11.5750418601 -24.9652821699
24.7362669054 31.7524117177 -11.8951014696 -181.558538876
22.459996331 39.6010597927 105.134686103 -68.6217004755
18.3728656213 19.6138155251 9.0205683501 50.3612836338
-89.2543213376 -47.479062615 -20.2246672404 717.292174122
81.2945644929 23.4084206803 36.0528932965 -1.41564290119
52.428370009 9.39144129062 80.494979913 78.1793139835
54.2061891558 -5.30701769559 47.7634504575 53.6367658523
-40.8177876785 -31.4880482436 -40.7729881093 -224.040752061
-79.712003936 -22.4790093243 -46.3276724743 -479.892259084
55.7436003491 28.3850941105 13.1049966302 190.218644067
48.64935096 23.532293221 42.4559500746 347.939784933
78.972202695 84.3563918459 164.776141906 81.2650658087
-0.635167582028 1.0287495738 -15.5042082685 -113.938777221
-99.6119584055 -31.1685151509 -179.57321294 -203.414747384
-82.9399313537 5.41434125545 -89.5644152102 61.8598465972
7.39442028165 59.1905652883 -32.2650796064 118.929757026
38.3790434565 -47.3946872165 19.4464612369 27.1077928155
-2.77221483917 -27.3770343177 31.0905041302 -92.0145971444
77.1550208925 32.1988510498 137.326309481 -98.3110381543
-47.868392635 -31.1001310974 10.0393986785 -177.004909852
30.273270493 2.1864312007 -99.1014925347 156.549248956
-96.1072308009 -43.8031643222 -68.9917542832 -126.717978429
44.9230716074 31.8014232405 55.1373535337 158.325787101
7.32243134391 24.6573701456 -22.7532985503 63.5912014676
-32.1088191766 -63.4212059096 33.6806271905 -109.293863689
27.0565000593 42.0590844013 -7.02765512183 -44.0961089965
39.9981792876 6.81068660617 -66.0446090811 -56.4669310775
5.78492324396 8.56774592642 -30.6752093236 -35.7120293701
4.37642541652 -33.0978824683 2.37893885972 40.2705004993
-10.1981828374 -30.6175778066 22.5954823039 -65.6646064087
-39.743279247 0.236635179013 30.0602349926 22.7968915041
5.39884854206 -19.5952926831 -29.843914376 247.947034152
-86.5925301444 -17.3175212933 -3.76822425697 68.215392928
99.9855995968 40.7141450837 -3.11758307649 -74.7198828159
41.8647456825 37.6032291347 -2.55005396651 -9.65387203188
-17.4824785657 -48.8085681894 10.366392954 -135.935219993
-18.4251374024 40.7943844538 22.0783524596 -67.9909183537
51.0626522931 -10.6340064699 47.5439992423 40.2006348089
14.579837089 7.80004285982 62.7215524963 117.797609374
-35.2640782555 -27.8666905323 18.8275737616 46.3056361479
-99.4959804831 -58.0968397191 -57.3048851995 -518.016168873
-51.0673605836 -19.1454816314 -86.383251926 329.683124706
42.885685415 12.8410951095 57.9169719445 628.463905123
56.096265211 56.6145252844 36.5699066473 -53.6823501786
-53.1714637492 -4.94038217489 -72.2687250332 -489.477550061
-43.0778512492 28.7544690741 27.2032699231 410.582598039
-49.5413794719 0.503156120003 -43.181531422 -89.9268298489
-21.5769264307 -2.54866251404 -26.191986896 7.17797950564
4.2079365168 17.0274786383 19.935643679 -1.83540710921
-1.00001277733 -19.3319133009 14.7281689954 -38.3747450713
10.2867476739 -17.7491161347 21.4793432029 -289.017639289
28.856340177 3.61641929967 40.3995331246 -126.427615392
29.7293651694 4.9782347408 -3.30827494095 19.5307991425
87.8584044721 34.898465617 82.0676536939 84.115744361
10.0735831383 -3.87139108985 -13.045743176 -251.428934442
30.164908979 4.98437655764 1.51846922698 216.885513901
-23.9287680726 -28.887278623 -66.8906475425 224.921545997
-24.5882944681 -35.1171458461 -56.5407016879 -363.459521017
148.140624412 50.9165473698 144.25581995 581.73673399
-79.6633981207 -36.9762404112 -123.458501614 -135.397877729
10.8088040321 28.802522345 -10.5108104265 -241.103786016
114.400568431 61.3974220174 49.9129808738 69.8473988079
-17.9100504189 -42.2652432506 -7.4767130949 -193.880038002
14.683437772 -28.9287848574 -76.288646291 122.260833282
-105.704489489 -40.656707449 -54.9459901972 85.68775074
-3.00956134669 36.0832241517 17.6170900636 -78.9723961362
-34.9641363631 -59.2727625227 15.0537787718 -56.1988365521
10.8317489851 -36.5608667802 61.8334837398 9.7692128345
-15.8782908633 33.3329115141 23.1986925778 -98.579968445
-54.4503943527 -9.08179544923 -2.0237833641 -14.575359258
-41.0963073995 1.76755931383 19.9856818667 46.6688158299
48.538716403 63.0529850675 15.7405495706 117.31518269
55.017086165 -0.411892338178 43.1165365697 198.047583407
-18.83085655 -8.74228256414 -25.513707379 -50.7535797031
34.6653626487 -1.39845104624 9.138103289 157.218165094
2.57835378953 -37.4849306572 -57.4443042767 -168.403042948
25.1923666592 36.4116533768 26.7155465691 87.7484747845
-6.8825444081 43.8747530585 33.3949809721 -79.5138708193
-20.4232432469 -25.0425419187 -26.1066217748 21.2901686113
-9.34987911976 1.96853748536 16.2362485005 -6.10183730312
-30.9455117496 4.75132968266 -23.6008153287 -207.818413708
-44.0966733881 16.8179826405 -67.2093489474 80.0980836774
-7.58145376499 34.7741503128 -18.9869076541 91.2075606147
5.21145521719 29.5554570203 41.5695555463 -52.0397811646
-6.76220125941 -25.0784478247 -41.9589840128 -215.389140269
79.6862384481 33.096524124 23.3335520728 221.977456516
53.2107589426 22.0450278341 47.2268702775 19.5334262898
-62.6473243333 -46.2476486159 39.9715593847 -17.8664189761
26.4328677061 -12.622159919 -28.6458425571 -410.873966622
-16.9766156744 43.7235823317 -5.62107912066 116.938494873
33.4631304104 23.7437283296 23.6140007173 455.615600962
-49.2141112219 -70.3189877008 -92.3524824814 -103.381697051
-105.766403803 -88.7107359547 -75.1405232559 -163.92584744
4.79123532077 -32.3121487381 53.0207307278 72.6490735885
32.3531725061 -12.8454518009 68.1366180575 -49.9529156557
129.116911576 44.7417520916 29.127321593 -365.962585859
39.2734194374 29.0610152387 67.5031019508 271.316537102
-37.2266440096 6.27679244165 -76.6228547526 249.728700149
-80.1523396938 -38.8750680405 -102.408212214 -160.299880144
-27.6240425274 -49.8257658694 69.3888515745 209.790951208
42.1868331615 51.524333842 40.1500544521 -33.1878331395
23.2574705081 89.9157864534 -67.9001446495 11.5163224651
3.06938367348 37.2382176615 -15.2725589231 127.011410473
-17.6980866042 -128.844648661 21.2521054522 120.308222268
-12.1468007374 90.0311836236 4.82536360618 86.0785054589
14.0638937297 -41.2216377294 23.9762581111 -276.663713291
-27.1942420953 -14.3710245682 5.62639851836 -271.355876664
-34.0354764715 -16.9183257896 -28.273656523 -314.998308001
-18.0359850022 24.1667515551 -20.2038726856 -29.9098452268
60.4624123099 26.5325855777 8.46706378061 122.178525068
30.1075651661 10.8708828268 9.93263271827 -44.5324935804
-15.8781245344 4.2291701456 74.7868872314 81.8200524774
-47.5380026728 -30.1379191672 -73.0351866055 -121.952891182
34.4757146967 -3.64362637047 -16.8199875124 163.403220719
-86.1493066241 -14.2323136727 -17.0122032125 98.0736539196
30.0564785755 -3.75186856921 -52.5750213117 -186.191626562
18.2980013136 61.5001066047 26.9039908929 464.054536164
-42.8571641606 -31.2068182683 76.408175127 -271.213396728
54.7383177877 -31.406537675 43.0900094944 -162.944464062
-59.7203319648 -72.2115933939 -12.1789421756 585.531756772
24.0484290297 37.6136991743 -12.3092107679 12.6279291717
17.8163127161 54.5363969401 9.33973235124 -57.1547229819
-7.67926028911 -13.72887608 -12.1811539609 -345.141672247
-13.5703654356 -2.78523044856 6.00074022056 -190.680567954
73.4058512986 39.5991198927 5.39527638623 231.876491272
23.0731633069 9.71172397876 13.5572556034 378.564369308
-71.1279485675 -49.3286242262 -43.5189056737 -179.377653934
3.18343999903 7.13899453876 -46.3732100921 -61.0633463076
7.73421945383 13.6356828432 10.2849789238 51.6660926559
-5.61165536008 6.91180763364 -2.85704769983 -105.06381505
96.5532734735 18.0512588757 129.2376341 21.1529149063
83.1002045652 17.2906105136 74.3681507017 -27.0127975488
-77.4781817031 -47.8873039442 -83.5793231026 -209.447489984
-31.0296069497 -79.3526704382 -22.6310737608 117.541852063
173.527826819 109.826878098 133.448259892 305.440019428
-132.066605269 -52.9304177742 -164.804388409 -158.548146416
-89.0801851389 -21.0428801607 -59.3247921539 211.824759461
-5.14977527527 28.5173035413 15.231253176 -171.229877547
3.05811422988 47.5287717231 -4.71855305306 48.0128579548
-27.1987303337 -11.8917047313 58.6005150404 -81.5856962687
-23.5691081913 -69.3949705823 13.5763320665 5.26299788687
-34.8046005281 44.1345955179 -79.6717699603 -192.040639894
28.2766758235 47.7242272384 3.96128746678 67.5420380195
4.72850940086 15.4005771822 8.82364348925 75.0014090472
20.4003462782 1.05455115671 20.1145953309 -12.8866830394
13.3764620866 10.0146319611 26.626901861 -64.9830092874
11.5751026928 9.99400745132 6.79625093431 68.1221252259
20.7292116511 12.7048769838 40.6791606508 203.117796664
0.399914319639 7.96893960183 -13.7536300208 38.2107798143
-6.36161471062 -10.0227072246 -38.6298492302 -158.886619184
45.8093419726 -23.0594119169 -32.7614376379 -44.9763554572
0.0158470982149 4.32522354365 17.1430570098 -105.780041274
-26.5361683925 -42.7980933342 -8.03201753172 -125.716994233
23.9420032934 -4.31756904566 10.6501053021 -59.7376265093
-23.8311422572 -24.3717437081 -37.8820286233 -94.1427028558
50.9773983181 29.1865801961 24.900674359 372.873494497
-66.4108949168 -23.3117132165 -16.5267005303 -71.7929195556
3.65390693098 -31.2367454743 -19.1260361075 -220.235974783
-88.4504254675 -28.7434222441 1.98413726579 -30.0699454851
112.147246245 42.7580953022 90.0002112138 138.536287284
41.7933986013 27.4280282468 54.0782794892 51.2184678288
-14.300089365 -4.73941827591 -49.2797174063 8.60483115964
6.81544460501 -12.8319297805 -4.21691908455 -23.8440123515
-44.95278582 -32.1635226986 -67.2978497368 -389.770953779
-5.79559165386 8.03775434083 3.59761123334 426.360306896
-6.41313987676 -2.78571690506 -5.10997284683 24.8607910034
3.20431921959 7.36592186173 30.6364701912 -96.4162052306
-33.5738274786 -16.2530800885 0.144648295015 -6.96521769116
15.143809525 47.7750242313 -18.6493771004 22.1088726219
74.2323754686 -19.920437041 45.0746623017 131.456757285
-73.0270798703 -42.22081725 1.71219394053 60.213036448
11.5018926716 -46.4714759369 -19.9337590121 -214.322934487
-60.4145802653 9.88671587946 -47.3450857126 301.778203211
26.9623015613 26.1107259725 -6.92787192339 25.5613463738
62.0243413212 24.6599020116 -15.2752572587 -59.0612726815
23.0219135028 21.7665270387 18.6126707276 -140.286089735
-11.5982393434 -58.068784981 5.79498160484 -30.2963786511
3.52026290564 -43.405046183 75.7541107745 -41.5192063803
-63.2902611474 59.3202096445 23.0557111805 -1.74246599733
-49.9051536028 -27.3853740328 -77.8542491258 -208.152783484
-65.4607854566 -6.5543321655 -86.1849515804 -0.501848676445
10.0121741116 13.9997088063 -14.2540180047 -104.720137527
37.0580441436 58.346930877 22.4874855208 528.844396699
-16.8758153602 -56.1124380432 103.547731127 146.717329135
-25.5400938547 5.12390734165 -12.0319687039 -9.62006039386
52.8016137383 34.2888061809 47.3566348043 105.178491621
65.4248846208 29.0388985465 20.9505994594 -94.2811037328
24.992037183 3.2134964683 28.2844992446 90.4258990168
-29.826120918 -8.56225938595 -1.18303091308 -91.4495585514
9.50232443615 20.828351618 27.1364711073 -76.2458445563
43.7677367268 13.8244786955 -31.3156594001 -312.65096643
-0.711776156791 18.8028389164 14.4929440728 -312.367894931
27.8126428419 1.66400929603 -79.7248189177 314.647733893
-3.35772668374 -13.5869988548 6.13571902519 38.8548856675
-28.1046226911 -14.5869143128 -34.0220738774 -133.838716475
-4.21295939359 9.15717076552 -30.5495046491 166.922641985
7.31954598513 18.2657386256 -2.7857018603 13.9374161847
-13.3228114985 -10.7155690984 50.6493648872 173.301859096
-60.9320343783 -25.8948864101 -112.699459458 -393.789296854
7.05497187015 28.4359535123 24.5571183462 -317.056480329
-1.09595007687 -19.4563519972 1.18558367232 545.072735585
-44.2843164532 -52.138918688 -32.9374256654 -61.169578053
87.443443611 36.8697873302 -12.4069050136 120.810572027
89.455108378 -0.318214555384 54.6532810678 -26.1998880217
-115.512944171 0.815212803755 78.9287524648 60.7853957507
101.054077349 37.4861486491 17.0947775479 127.070493077
-24.4680408895 -38.9264687908 -41.8394895171 -182.595719588
-78.9866941517 -35.5781664011 -20.7746110828 -245.533455099
-25.1439764682 16.8277972779 65.4278173338 4.58395607219
34.4711835013 47.9071209775 8.487480158 -34.1803452918
44.2183042418 44.8370545686 46.6984189474 -43.7063635607
8.34977210535 18.7906193052 17.8290442499 301.758957031
-36.5536188686 -13.8209958406 2.87794476913 133.058439228
-79.2370795277 -67.8088358379 -2.02239178561 168.286924397
-3.7957428065 6.39020925182 -49.7782079765 -14.7685048384
34.5995835675 35.151644103 -69.855969373 -7.16423449271
-11.6437712928 -17.5435055706 -87.9374424856 -301.344252408
18.2464711102 4.25520574042 18.2510817371 67.0789392244
98.3948175182 49.7606545537 48.5023254204 -27.5647197061
-75.9653639972 -58.6966477875 -28.0114822561 -211.327780046
-8.26624884048 -51.0504763437 -29.5278956604 106.501173328
66.9993860894 25.8034617556 53.7437705104 134.829059861
-45.3466239584 -60.2685724323 -0.223596599585 -8.98368278669
42.8664618244 12.6805357267 34.3563942203 -18.0664501803
-4.41188906797 9.12489945509 0.436439851116 -107.194218515
-9.72764219106 2.02665543634 -0.718601749453 16.5481143506
-59.672591943 -88.6785544892 -24.3814570208 -29.9494011971
-3.30666699308 -17.2466480402 -4.15981767363 -246.923944051
38.6159970547 43.9038179167 13.5297102635 179.903619938
32.9964268708 21.5276154549 -9.6037607791 -195.63540664
-28.7164981611 15.4466054274 35.4963169999 391.611763519
-24.2920950452 19.8669939979 11.4406608341 140.125674704
-3.80185809468 39.6439998763 55.1439486811 116.833843511
-51.0121379174 11.573137027 -56.3496599355 -131.415648391
-31.3822858086 -6.23900444064 1.76016074097 -13.9762930723
-5.09917622008 -36.1791117384 -56.5182127221 -224.663478563
31.769950497 16.3807706657 42.502320317 129.073960008
23.3078347242 25.5070451383 1.44518970166 -56.2254996049
39.8354378369 -8.03189321564 3.82936634118 -46.7852809809
-86.5758143593 -20.9780006705 -28.9904923089 90.1733626953
25.6927822804 -15.2364966115 17.7357910841 -143.300406886
-10.1552783251 2.56577452322 -66.3525842551 -116.141393655
57.3167482051 49.7749719099 -70.3523809549 -34.3037706584
47.3002334989 26.0584436028 49.1617227582 -5.28570329652
-34.9171698426 -4.46605393205 5.22785485285 72.8856633948
-15.5056464287 -15.7502263107 -9.9370561248 147.041191808
28.9638882096 -1.84651278097 11.8705871125 -37.87863634
-12.7119913436 12.0917964102 -2.72836772095 -43.400971478
43.78646292 -11.435845399 -5.277574153 -77.4543098281
-126.60615174 -75.8983516111 -39.7521103932 31.7034377412
46.4984809403 19.4556051451 130.869580337 -54.3476187979
33.2640680763 1.58465788058 90.4084328165 94.3047846675
-13.9721085076 -67.5988766408 43.1929626209 335.376371377
61.3252714199 40.4989762825 52.6656080849 268.991831171
-38.4880240934 -6.76740845735 -57.6134641339 -145.639969847
58.1836467147 44.9406788746 2.02500820298 -79.70697589
10.7534584965 27.9028496724 -59.2989786072 -121.242995536
-43.5517158842 11.7713241879 -79.1735179423 -166.994175336
96.1783075353 74.5373817667 27.043741341 -146.230242535
58.2394988013 -28.0973516785 -3.77144687223 26.1790931434
-22.7512505567 75.4079808998 -66.9138688931 -146.089650611
-132.331256881 -150.456474164 -6.09465674381 -111.947466724
-36.3048451916 -8.7285834769 -56.263305961 44.6213305863
-14.283259188 -20.5773832376 12.0169036696 184.659580424
-1.91454614539 12.194398291 -16.789800468 -183.373435223
8.05538555033 8.08831794969 38.2376651823 353.304888919
-25.213172988 -6.93037479382 36.3506708745 257.554754346
-45.8138360042 27.3325228379 -77.2175923568 153.612635264
-23.8645970917 44.3899312693 13.6144471544 112.468733764
51.8058447399 8.81915476457 83.7535196625 -394.329344463
41.3526498854 20.3988430749 33.7082709072 -124.564709366
77.1710224943 35.6700101609 26.3600412555 20.172942804
50.9730980199 11.5414045615 -15.2199672153 123.568059372
-47.2791727651 -115.488688214 -8.13102917079 -8.08930980298
16.7936153829 -48.43104839 13.9998584164 69.4598986604
10.0662576484 22.6754429648 23.2014882436 16.5747868534
19.6449811993 25.8540341044 26.130903692 -120.217350654
-35.8021387514 10.1164635709 19.260043532 -493.427910673
-127.054363617 -67.6260185697 -114.179422288 353.961011963
-2.79329319964 9.20607257101 -84.507842082 -444.083304144
21.9901521797 35.4971887418 3.9473796271 733.426033747
-23.996373371 -2.55306918661 81.4393168996 109.970443116
12.8463078516 9.26116706637 73.127262978 -95.0644865979
38.4777202634 37.6680123489 18.9551850969 -37.1726847518
21.5331676154 24.1455823126 11.6321239204 -214.842509577
36.200702855 -4.88949502199 -50.6651014213 -128.729811454
2.82826909875 -3.59884390316 34.7852845045 65.5244038191
51.7992126284 -12.991604024 31.5329685479 54.4138953551
-23.5241188914 -17.0637279674 -54.2412524203 -311.801610734
-142.400165612 -136.724506001 -29.8285479672 52.2409204839
-46.8574586756 6.32005651472 -88.1734136976 -79.318542202
29.5106097272 -12.0402536281 -59.8797918947 207.926875131
40.8144606279 -18.501020684 15.9627759919 78.5320197929
23.7201262903 4.43209639875 91.7148859584 -115.141760652
27.5425919592 43.1042113944 7.06685524922 93.5299720298
-23.0580869615 27.6568110456 -19.3925460176 -77.1822149619
62.1889827609 31.6021547459 55.8214808321 -41.913251718
-33.6504000106 13.6320272766 -15.5519851259 106.48830696
66.5819267021 81.6440525338 92.9808786353 14.4276176323
-34.1854775593 19.5398328036 -93.9200718707 -110.836053251
3.41553184232 41.290434983 -23.8544655827 138.355910275
-8.81842851265 -46.1310623419 -46.9499530879 -30.6240634604
-58.4694135528 -28.5768472407 -2.39484486898 70.6104597518
-45.3835411256 -76.7520297244 -30.4172656799 -129.93383083
-32.8290386141 -29.0064665746 12.1979718421 -22.9140957826
57.1756706942 26.1977001869 47.5143642212 45.123579261
87.4680902425 55.5792000201 91.466963573 401.588303794
-82.5103911262 -50.3653554742 -56.3568040572 -40.994657778
-89.3443719938 -77.6793613247 -73.0059038564 -181.075554863
-7.24072353742 13.406458006 -7.95340866327 371.885456994
-13.4100242156 -0.591692022419 -18.4499204274 -273.369791091
83.6404233108 53.1741517451 77.6920442185 23.1045966496
0.193330191213 17.9394011911 46.818441843 -44.6333216295
26.0546895067 65.9021501332 -51.8284517314 -262.117019003
47.1101029147 59.2581621942 -4.3166739141 -69.2432343773
-5.88706808385 -34.0050025951 6.78476506887 -9.27227029052
-15.0970019923 -30.9468712781 14.6706652528 -133.409301343
24.8365651227 24.4795518408 10.2793305209 174.251226107
30.9791778143 27.208955558 5.02886783128 -84.5061273942
53.2575056509 23.1878143407 56.6491237779 408.132579204
-20.6436198354 15.581857664 39.1848384072 162.96495656
-74.4693264751 -109.201269124 -38.3543379414 -13.5197424113
-4.4207331857 -37.8523885651 21.5407949138 138.747826388
-7.96920034909 -12.3867425231 -77.7571107753 -104.964929428
-27.7200493413 -34.8148252968 -29.5562646646 -173.652699354
52.422745636 21.9548711118 8.79059327301 -107.583076607
38.4226185834 19.0662070781 28.7657433113 -131.752824115
-37.0989718719 27.3468529743 -29.7819529344 -148.76480438
-17.4871712575 -43.9407062146 -6.34904387087 -67.6155897326
-33.2932662949 -10.4331797519 -26.8514946031 -145.768263267
-23.1521549207 -4.4522289937 -13.5119528767 225.350616325
-2.24114241185 0.694138634588 -19.766562696 -10.0024185292
14.6206585402 15.8717792524 35.8921258424 114.140522835
-4.96368864929 -3.00906724309 21.0406435835 -31.2759643289
-5.06163709294 -13.8874879652 -4.27260897334 125.087146154
12.3619939924 16.4291243766 30.4706111289 47.6364248315
28.8076891161 -7.68405409525 68.09770413 28.4295371924
-21.8413703025 -23.3404054742 -13.520798282 -154.462424899
7.17932818461 30.5216615424 -23.8845504508 263.643109639
-12.1073110601 -15.4936192297 -33.0522206962 -32.0834048589
-66.6180360484 -9.83673167735 -11.1818147938 -353.490345576
158.803892387 -11.5404023773 1.4843830563 -14.7975549774
-12.3734351826 4.84703576957 11.9015995891 -83.2590938099
57.7844158058 44.2871308032 84.4600109072 203.19445154
34.4922377457 51.6564023702 0.410805175807 131.560013002
-0.99937630901 14.8081588057 -46.0320137759 -102.533254314
-139.264390986 -97.9215196672 -111.671615163 -48.3000305114
-4.32797310042 9.71484167664 37.5171533249 45.0160795683
23.3064897791 18.2705183522 29.4022509792 128.593598182
16.6628260337 30.1722336607 -8.23579141291 -287.987483901
-21.954764858 14.7124315326 -62.2085962376 326.741803639
-67.79589202 -52.3037626898 -23.0620678519 118.025501612
-42.5691205915 -3.99128243012 72.0213037526 -285.320264558
63.9357238194 32.1563422026 47.5240578015 60.9895224327
27.2988688045 2.30327824095 -9.45975643355 11.2368138714
25.9077692386 21.8325944631 -45.7766130138 -59.8771905251
7.97208046853 9.98086678394 43.8120632255 -46.097031096
24.3142495873 32.4683487621 69.5788337708 96.2894659687
-11.6885306215 -13.8274275866 -57.8616503343 124.118397119
14.798944276 -29.3573091263 -7.79332347994 82.4918206791
-42.2772477969 -31.0289439847 -36.7435947202 -11.5978003346
9.55429436799 12.828574823 4.54841538658 -304.822816958
-20.2578334022 18.0170818326 -6.72767628693 -186.332079833
119.481137049 47.2706054936 47.0170982466 109.186529643
-163.697821212 5.74638587098 -30.6084876274 -145.22501812
45.5770755545 10.105806849 -21.0118689608 270.420907204
32.7774163192 -12.5165577734 65.1769408829 -53.6689636896
-26.8004293782 -56.3659075299 -44.9821631163 35.3762470928
-18.3673772437 -9.8074099935 10.0961386858 -124.584876345
-5.64301910976 -20.9993679956 -27.8985976365 10.5103280705
35.0963523755 18.2780577954 27.2680398635 507.408399818
-3.60988480831 0.596920034811 -17.4283863284 -206.407389659
-16.314106229 14.6605983034 -15.7480865446 -121.985549192
2.78289860997 25.4627907267 37.8726701331 96.947482121
-14.9566238212 -5.38170789288 17.964167492 103.700909737
-54.4393922985 0.266382350191 -102.600093684 5.00391008053
-26.7008964407 -29.8630958699 -60.2215960184 -136.073286062
73.5020982519 29.0807154771 76.7676014761 -61.081001981
27.0293991718 -38.1878997573 87.449031258 58.8709656247
-32.9396003042 -44.8073718378 -21.4226881308 16.5531735672
-26.8924006481 -4.69280857501 34.4800612258 38.5755148809
-21.0395985533 25.8371094276 -46.8649252734 -161.384103985
54.6143039843 30.498995196 -0.45367948788 235.092921989
17.8320635076 -22.8024478903 13.4257581444 -275.231874335
-61.0587376606 -28.809352237 -141.332154402 57.7089936001
-14.8540862303 5.99025561311 -37.0468618766 223.259674179
43.5283829296 55.9111959797 16.1729735964 -126.039399542
39.7258691801 -24.6449481505 78.4297634914 -165.205936051
-8.36065635372 -8.20745888938 58.7851945 -75.5702499545
-2.14089562804 -5.19943434633 20.0353739014 -43.4784458975
-38.9794520997 -12.0143969861 18.0366350534 -48.917673564
31.7513404339 28.1277079217 55.5299262236 304.964121764
-22.8818116059 12.1791593308 3.0657386187 -151.713467853
109.740023592 72.5223994324 48.2812712117 250.983849652
47.6001507075 38.2506087907 -33.639520013 -256.361230995
-70.544659807 -61.1568359093 9.29852757067 -305.78265459
23.0433517067 -4.50184564525 -73.239896953 171.1307568
20.5272412569 -28.4829077014 30.0840766088 519.312543877
-70.446400731 -53.9380867594 -64.4649272446 -309.117725509
-1.13407553935 18.9607442834 6.45752538267 -40.7080764295
49.0080055499 47.7740466685 89.2176284929 -70.6014093513
-45.9108756105 -15.0369819891 -32.4371764448 92.0219451097
-33.9952580492 -23.9421470559 -34.9750563498 87.4873543905
4.30576568062 6.64432599119 -4.85708199166 290.247667819
-53.4036663147 -37.483312812 52.912075716 9.54110457362
2.62323653567 31.4258162376 -28.2066410956 -109.859786228
-26.2328290129 -1.76732982629 -48.7477993642 -54.9996578945
-13.4402181206 -12.0974815498 -33.2451461752 -117.84745701
20.1531133061 13.2447198413 45.3819864209 210.182753244
25.4683510305 15.7090486111 10.7872101266 -107.359767887
34.2922657203 -28.7391878329 17.9857800647 -135.134287719
58.6714045727 37.0557046709 7.78388227532 180.887370536
-11.9435703571 22.7026980235 -13.1605879154 -60.2672989168
47.4543235134 21.6354979837 -37.0957530506 -110.273445532
-22.4107780853 -8.90398370461 29.4831133123 -41.2462220401
-28.3583354452 -52.8944934948 -13.3882371216 -71.5539863061
-83.2539366608 -106.833515735 -9.17435837161 -113.173774965
17.4969361308 12.8730582655 -20.280752619 23.4675082766
4.06391975939 6.3685498003 -6.24568920005 54.2203446254
24.2450931018 27.9983898416 -23.5603135616 15.5410127738
-2.7371994597 0.593914989561 14.22090076 108.418891016
13.5695453107 -33.58807421 2.22088929275 84.3717156711
-64.8667526305 -1.96031308468 -2.30456806217 -90.1407383407
49.9436423214 -2.05035765012 1.45547390339 109.304729005
52.3911988611 28.613784988 17.8417610833 -10.3465742688
0.591374448237 27.5675723282 -5.07683229125 -7.79324533067
-15.116013209 4.44505550511 3.96626452768 -152.14213498
5.36828792063 3.08698980463 0.129059995626 144.479438122
30.663197113 31.4923929094 41.1038203932 -21.024486372
-9.59876145514 -1.27621179432 -39.2104659182 -162.228747316
9.86607805516 18.1962734476 -8.13214052854 -330.463074398
56.1340261263 17.7570590691 9.87414802729 346.531076366
-163.572378672 -2.67516089319 -59.0641508646 275.852153091
50.7314001868 28.4275484588 2.63475420295 -107.271623627
-12.5558527776 -38.1599057719 28.3618483621 -16.6813680676
-32.5497750871 -41.3144454908 24.7731010423 87.2219667753
36.0016691782 -37.0255777813 50.0166441714 4.30492902517
25.8678219604 87.7033242689 89.9595900124 125.181888012
-2.52564490826 -28.2160746409 -72.0461855608 39.7997324951
-50.1076442952 -56.53293473 -38.2528570235 -221.691936408
-23.2015775437 -27.9894068944 -8.31484850756 -62.4412100568
33.7629644218 26.2367552736 35.5105974871 -92.2515774675
16.1375656597 17.540793923 39.454214195 -139.348300046
-38.8553209972 -17.6645961273 -81.239038167 97.0417162274
-1.07101863993 5.76676893454 -54.5768443524 -83.2283515675
14.8884389905 7.04760660751 29.3333619077 118.413872922
-73.7976528943 -42.8249534769 -31.2273307516 -71.3811693838
4.2721549868 18.2593926989 7.56382734954 8.69482295155
62.096775527 37.0170654524 -77.3960231002 -227.71514573
9.49489578761 84.6172112449 4.31542736286 162.989867045
110.506772291 57.0539007995 63.1830434978 83.2160538191
-54.2279178574 -47.9877814793 120.443704652 63.735843176
-80.4927353984 -83.3414422234 -51.8417743553 95.4383778561
13.1075809683 -6.47015813076 -13.4776584161 43.4734236322
97.5209271401 26.245819296 112.048314986 -160.889224971
61.8334173506 5.65867885706 76.7612704485 174.105314061
-39.8756882513 -23.8440040834 -37.9183856354 25.278221876
27.1414081959 20.7897588475 -6.76846568585 140.548606425
76.680913002 31.0489093027 8.34232313481 49.5210840217
-20.7436318806 -9.61775456323 -58.3231550916 -140.346382095
-87.5550453467 -62.3528147348 -19.24836469 -227.106314925
-70.407135551 51.4412783553 -117.056111394 -51.87586411
41.7828449078 -26.6651253222 -44.6609221662 82.1514015075
9.15771538474 9.53295998351 -12.076380274 83.8155990521
-29.231194128 19.4640305255 45.6391443041 -141.548743523
-95.1538650671 -99.0710545271 -52.6436900618 -232.131547915
-76.8491581786 -32.9483463182 -9.52430849084 -37.2361911059
-5.76007997837 16.2313247982 -7.76168507522 -74.1237333506
15.9701337523 26.6231607197 103.961026365 361.923993786
-3.23146610334 18.8988746068 -22.8520329768 -19.5435683101
80.3110251845 58.0727298363 63.7743111067 -130.688329577
3.98325390356 56.8008397835 40.3043497676 154.101548387
-16.4740219875 -25.3529771931 -19.8124284721 -162.986296628
-3.16149162572 4.01734257404 15.2270942732 -20.6907147497
16.2854792901 26.9721503515 31.1709599885 580.246559838
12.7948142273 13.8169166445 -37.5224734009 116.95725962
52.0608930904 -21.3769186909 -36.1460988394 -355.697598253
-26.1944972842 -33.6757769247 -10.9543261652 -179.03461695
18.9620938095 17.8783333769 9.51639369778 181.222554128
65.2471809075 1.6111248214 18.5441071762 32.9005056479
71.7700065915 12.5007731814 51.6292568869 19.6604650069
6.12879671977 -9.84276759219 51.7882040765 -161.87172576
-57.4850444368 -37.0780252967 0.825846042953 -161.612422882
-137.058685716 -70.1159073927 -156.110212714 -124.587879351
43.7054588353 9.47298036321 -61.3130643029 47.1589944981
38.1368247563 51.6740877095 -1.38528768905 190.313695425
81.0140111599 36.6659809076 83.3251930574 155.478732636
-57.4206207451 24.7880265447 16.3261968108 -20.1523552223
33.1610736942 -10.8514979204 60.565857884 50.5396228071
-95.2128070582 -39.8369810521 -28.3892216279 -98.1069057779
32.398424725 41.8181794905 -14.0166162498 151.204197177
-22.2295186076 -21.3378135939 -22.9997901012 -62.7771700979
-37.6921633543 -67.2319778033 -38.7595692025 -75.8152886882
-13.9502253231 51.7136382961 -18.0445156459 -13.1538907657
14.97451725 -15.2068508372 -63.4705358242 -49.6993895759
-92.4553698892 -93.6696850859 -55.6665707319 39.2633584623
17.0067890674 -7.42452560706 53.6694507674 51.5514249953
7.09521696427 -13.6092415929 -2.83082980904 -43.5884603797
-8.22504424679 16.2823873232 64.1978481584 -169.855752675
18.6287959304 12.0115659687 15.1908072009 82.4069367313
69.5410984566 28.9024070425 42.5144002491 -3.03235318762
-71.457390824 -5.89921019994 17.6983133722 18.5698876781
103.69431789 78.509135738 23.1675069498 79.248969617
21.2857988303 -1.72537805423 29.4038970984 85.73286499
9.24903940506 -61.2880337774 -8.52064530236 0.560527286889
2.79760905969 30.4615244365 0.937280663185 -59.8715572612
-6.71943300943 88.7788865276 -79.2596334012 -153.373037478
32.4395941208 53.2597039817 -16.7579375806 60.9643610492
-16.2162965608 -9.56476479133 -6.06269464635 29.8810752677
-3.79990715375 -16.7079099059 61.6756600933 -36.0626751047
-59.2275665185 -45.0546848318 -7.86211024333 -214.728135438
106.807504515 40.4723484155 29.8093278266 199.323874613
-60.3864226082 35.0312768548 -15.6944412346 -53.699756295
-52.9109440299 -9.94057756572 1.53740389097 275.71193435
-29.4921741042 -53.1651521477 -39.0371161904 -305.737491121
-59.766415683 -129.056194879 -37.5700020556 -86.749540729
52.2402202104 13.0181900218 8.92895453301 323.664946331
-37.282773314 -30.1756888989 -28.7006091856 -201.545653247
-36.206361912 22.5024141749 -12.1321595913 -109.807528497
6.83728883843 19.973908955 17.9730808668 100.210629218
38.4538760397 -19.148096603 25.8188904254 -14.1020517701
-44.1731573539 -39.9743058563 -71.8175869538 -226.592156632
78.6286914174 40.3639377077 22.4428895676 170.211731467
41.263221392 53.0449251308 15.2720060473 167.852444898
79.4316834689 26.022433965 31.3208481607 68.3712527302
-11.0050773815 -14.2005997001 35.5653709435 -67.1271053346
3.96965654328 13.7411038358 41.5123097159 -22.8230828281
-51.3977168184 -79.8849297961 11.2844727171 24.9429224859
-20.5297125084 -22.041577902 -6.37158751788 -61.4205020096
85.840763933 46.7173207158 17.7231713943 241.579811193
55.5908450996 31.9811052857 -19.9187746358 77.3459145527
-41.4836484053 13.8837795366 -5.82688165215 -49.4902470317
-13.7943262393 46.1618143089 60.6321215345 56.6705301086
-36.638414716 -36.0264534473 18.8300846373 -91.2666419851
-32.2909988252 -41.835532961 -28.2420865564 46.8735936369
-65.0466444757 -8.69863313592 -105.889921597 -87.1497998627
0.672915554928 22.3658191212 10.6517179642 -63.8100584527
-9.73340404474 -4.19677761343 -4.54859180216 51.8850233364
-27.2081452866 -27.9010190883 -67.9472608857 -47.1728417612
55.8653311238 34.5548555304 50.8619552036 -133.872692578
5.26852918658 21.134777331 81.7291450229 176.17458918
20.5755500871 47.7309571128 -0.564696629127 -103.709190626
54.8639597267 -1.3966094495 60.5604381209 80.7410323349
18.3354111225 17.4254527386 51.7304661699 -148.113032317
-26.8092952981 -29.5588549244 -92.4323534345 53.5785746186
-78.9687449943 -13.910820129 -69.6403025219 -67.9482042732
99.5503325632 42.0436497124 46.686331069 -222.094289247
47.8409417701 0.810688878246 -2.50436929457 418.66336615
-22.8333733455 -26.2431312784 -38.4798839606 -113.339719395
2.51745841298 4.92187767137 -60.0411772871 -76.1011683249
-96.1440962811 -56.984319107 -45.6066930207 125.206038549
26.6582711446 -7.9169524951 -21.4521668445 -338.628624762
12.3126429105 12.5170996335 -24.2952904772 415.598869681
-14.4597340987 -40.4214640791 -3.53306365484 110.855082833
-1.66241479713 -10.6843633513 -8.00352816513 -193.891506006
-12.4867079179 -6.81872618431 111.994758964 -148.242997832
66.1755097499 7.6294365691 20.4605570966 -39.894372116
-72.4146031424 -76.9074913451 22.098198508 -183.529149913
0.96044993086 12.0299165912 41.9800017527 33.1934629154
33.5770984438 41.9784874567 8.32129511283 12.3931669821
-19.5003854073 55.4519008919 -28.0881518882 420.849845314
